# OpenSignals Text File Format
# {"00:07:80:79:6F:9D": {"sensor": ["CUSTOM/0.5/1.0/V"], "device name": "00:07:80:79:6F:9D", "sync interval": 2, "time": "17:53:44.456", "comments": "", "label": ["CH1"], "channels": [1], "date": "2015-4-27", "mode": 0, "firmware version": 514, "device": "bioplux", "position": 0, "sampling rate": 1000, "resolution": 12}}
# EndOfHeader
0	0	
1	2050	
2	3414	
3	3415	
4	3414	
5	3414	
6	3414	
7	3412	
8	3412	
9	3411	
10	3410	
11	3411	
12	3411	
13	3410	
14	3410	
15	3410	
16	3409	
17	3408	
18	3408	
19	3406	
20	3406	
21	3405	
22	3406	
23	3406	
24	3405	
25	3405	
26	3404	
27	3403	
28	3404	
29	3404	
30	3403	
31	3402	
32	3401	
33	3401	
34	3401	
35	3401	
36	3400	
37	3399	
38	3399	
39	3400	
40	3399	
41	3398	
42	3397	
43	3397	
44	3398	
45	3398	
46	3397	
47	3395	
48	3395	
49	3395	
50	3395	
51	3394	
52	3394	
53	3393	
54	3393	
55	3392	
56	3392	
57	3392	
58	3392	
59	3392	
60	3390	
61	3389	
62	3390	
63	3389	
64	3389	
65	3387	
66	3388	
67	3388	
68	3386	
69	3387	
70	3386	
71	3386	
72	3385	
73	3384	
74	3385	
75	3384	
76	3383	
77	3382	
78	3382	
79	3382	
80	3381	
81	3379	
82	3380	
83	3381	
84	3380	
85	3380	
86	3378	
87	3379	
88	3378	
89	3377	
90	3376	
91	3376	
92	3376	
93	3375	
94	3375	
95	3373	
96	3373	
97	3372	
98	3375	
99	3373	
100	3373	
101	3373	
102	3371	
103	3371	
104	3372	
105	3373	
106	3372	
107	3370	
108	3370	
109	3369	
110	3370	
111	3369	
112	3369	
113	3368	
114	3368	
115	3368	
116	3369	
117	3369	
118	3368	
119	3367	
120	3366	
121	3366	
122	3366	
123	3366	
124	3367	
125	3365	
126	3366	
127	3365	
128	3364	
129	3363	
130	3363	
131	3363	
132	3364	
133	3362	
134	3363	
135	3362	
136	3362	
137	3360	
138	3360	
139	3361	
140	3361	
141	3359	
142	3360	
143	3360	
144	3359	
145	3359	
146	3360	
147	3360	
148	3360	
149	3360	
150	3360	
151	3358	
152	3360	
153	3360	
154	3359	
155	3359	
156	3358	
157	3359	
158	3358	
159	3359	
160	3358	
161	3357	
162	3358	
163	3358	
164	3357	
165	3357	
166	3356	
167	3357	
168	3357	
169	3356	
170	3355	
171	3354	
172	3353	
173	3354	
174	3353	
175	3351	
176	3351	
177	3351	
178	3350	
179	3348	
180	3347	
181	3348	
182	3347	
183	3345	
184	3343	
185	3343	
186	3343	
187	3342	
188	3339	
189	3338	
190	3337	
191	3337	
192	3336	
193	3334	
194	3332	
195	3332	
196	3332	
197	3330	
198	3328	
199	3328	
200	3328	
201	3327	
202	3325	
203	3324	
204	3325	
205	3323	
206	3323	
207	3322	
208	3320	
209	3321	
210	3322	
211	3320	
212	3319	
213	3319	
214	3318	
215	3318	
216	3318	
217	3318	
218	3318	
219	3318	
220	3317	
221	3317	
222	3316	
223	3318	
224	3318	
225	3318	
226	3317	
227	3317	
228	3317	
229	3316	
230	3318	
231	3317	
232	3318	
233	3316	
234	3317	
235	3317	
236	3318	
237	3317	
238	3317	
239	3316	
240	3318	
241	3317	
242	3317	
243	3316	
244	3317	
245	3317	
246	3317	
247	3317	
248	3316	
249	3316	
250	3315	
251	3316	
252	3316	
253	3316	
254	3314	
255	3313	
256	3315	
257	3315	
258	3313	
259	3313	
260	3312	
261	3312	
262	3313	
263	3313	
264	3312	
265	3311	
266	3310	
267	3311	
268	3311	
269	3310	
270	3310	
271	3310	
272	3310	
273	3309	
274	3308	
275	3309	
276	3309	
277	3309	
278	3308	
279	3307	
280	3307	
281	3307	
282	3307	
283	3308	
284	3307	
285	3306	
286	3307	
287	3306	
288	3307	
289	3307	
290	3306	
291	3306	
292	3306	
293	3307	
294	3307	
295	3305	
296	3305	
297	3307	
298	3307	
299	3306	
300	3306	
301	3306	
302	3305	
303	3305	
304	3306	
305	3307	
306	3307	
307	3306	
308	3306	
309	3306	
310	3307	
311	3306	
312	3306	
313	3306	
314	3308	
315	3308	
316	3306	
317	3306	
318	3308	
319	3307	
320	3306	
321	3307	
322	3308	
323	3307	
324	3307	
325	3307	
326	3308	
327	3308	
328	3306	
329	3306	
330	3308	
331	3307	
332	3308	
333	3308	
334	3308	
335	3308	
336	3307	
337	3307	
338	3308	
339	3308	
340	3308	
341	3308	
342	3307	
343	3308	
344	3308	
345	3308	
346	3308	
347	3307	
348	3308	
349	3309	
350	3308	
351	3307	
352	3308	
353	3308	
354	3308	
355	3308	
356	3308	
357	3308	
358	3308	
359	3307	
360	3308	
361	3308	
362	3307	
363	3307	
364	3308	
365	3307	
366	3306	
367	3308	
368	3308	
369	3308	
370	3307	
371	3307	
372	3308	
373	3307	
374	3306	
375	3307	
376	3307	
377	3307	
378	3306	
379	3306	
380	3306	
381	3306	
382	3305	
383	3305	
384	3305	
385	3306	
386	3306	
387	3305	
388	3304	
389	3304	
390	3305	
391	3305	
392	3304	
393	3304	
394	3304	
395	3305	
396	3304	
397	3305	
398	3304	
399	3304	
400	3304	
401	3305	
402	3304	
403	3303	
404	3303	
405	3304	
406	3305	
407	3304	
408	3303	
409	3304	
410	3304	
411	3304	
412	3304	
413	3303	
414	3303	
415	3303	
416	3303	
417	3303	
418	3303	
419	3303	
420	3302	
421	3301	
422	3302	
423	3303	
424	3303	
425	3302	
426	3302	
427	3301	
428	3300	
429	3301	
430	3302	
431	3301	
432	3301	
433	3301	
434	3301	
435	3301	
436	3301	
437	3300	
438	3299	
439	3300	
440	3299	
441	3297	
442	3296	
443	3298	
444	3298	
445	3296	
446	3295	
447	3296	
448	3296	
449	3296	
450	3294	
451	3294	
452	3294	
453	3295	
454	3294	
455	3293	
456	3293	
457	3293	
458	3292	
459	3291	
460	3291	
461	3291	
462	3291	
463	3290	
464	3289	
465	3289	
466	3289	
467	3288	
468	3286	
469	3286	
470	3286	
471	3286	
472	3286	
473	3285	
474	3284	
475	3284	
476	3284	
477	3283	
478	3282	
479	3281	
480	3282	
481	3281	
482	3281	
483	3279	
484	3280	
485	3280	
486	3278	
487	3276	
488	3276	
489	3277	
490	3277	
491	3276	
492	3274	
493	3273	
494	3275	
495	3274	
496	3272	
497	3272	
498	3272	
499	3271	
500	3270	
501	3270	
502	3270	
503	3270	
504	3269	
505	3268	
506	3267	
507	3267	
508	3268	
509	3266	
510	3264	
511	3264	
512	3265	
513	3264	
514	3263	
515	3264	
516	3264	
517	3263	
518	3262	
519	3262	
520	3262	
521	3261	
522	3260	
523	3260	
524	3261	
525	3259	
526	3258	
527	3257	
528	3259	
529	3257	
530	3257	
531	3258	
532	3257	
533	3256	
534	3255	
535	3256	
536	3255	
537	3255	
538	3253	
539	3253	
540	3254	
541	3255	
542	3254	
543	3253	
544	3252	
545	3251	
546	3251	
547	3251	
548	3252	
549	3251	
550	3250	
551	3250	
552	3250	
553	3248	
554	3248	
555	3249	
556	3249	
557	3247	
558	3246	
559	3247	
560	3247	
561	3247	
562	3245	
563	3245	
564	3246	
565	3244	
566	3244	
567	3245	
568	3244	
569	3242	
570	3243	
571	3244	
572	3242	
573	3242	
574	3244	
575	3241	
576	3240	
577	3240	
578	3242	
579	3242	
580	3240	
581	3238	
582	3240	
583	3240	
584	3238	
585	3238	
586	3239	
587	3238	
588	3237	
589	3238	
590	3238	
591	3237	
592	3235	
593	3237	
594	3235	
595	3234	
596	3236	
597	3235	
598	3234	
599	3233	
600	3233	
601	3234	
602	3233	
603	3233	
604	3232	
605	3232	
606	3232	
607	3231	
608	3230	
609	3230	
610	3231	
611	3231	
612	3230	
613	3229	
614	3229	
615	3230	
616	3230	
617	3229	
618	3228	
619	3228	
620	3227	
621	3228	
622	3228	
623	3227	
624	3228	
625	3226	
626	3226	
627	3227	
628	3227	
629	3226	
630	3227	
631	3225	
632	3225	
633	3225	
634	3225	
635	3225	
636	3225	
637	3223	
638	3223	
639	3223	
640	3223	
641	3224	
642	3224	
643	3223	
644	3223	
645	3222	
646	3221	
647	3222	
648	3222	
649	3222	
650	3222	
651	3222	
652	3221	
653	3221	
654	3221	
655	3222	
656	3222	
657	3222	
658	3221	
659	3220	
660	3221	
661	3220	
662	3220	
663	3221	
664	3220	
665	3220	
666	3219	
667	3219	
668	3219	
669	3220	
670	3220	
671	3219	
672	3218	
673	3218	
674	3219	
675	3218	
676	3218	
677	3217	
678	3217	
679	3217	
680	3217	
681	3217	
682	3216	
683	3215	
684	3216	
685	3216	
686	3216	
687	3215	
688	3214	
689	3214	
690	3215	
691	3214	
692	3213	
693	3212	
694	3213	
695	3212	
696	3213	
697	3214	
698	3212	
699	3212	
700	3212	
701	3211	
702	3211	
703	3210	
704	3211	
705	3211	
706	3210	
707	3209	
708	3208	
709	3207	
710	3207	
711	3208	
712	3208	
713	3208	
714	3206	
715	3205	
716	3206	
717	3206	
718	3207	
719	3206	
720	3205	
721	3204	
722	3203	
723	3203	
724	3204	
725	3203	
726	3203	
727	3202	
728	3201	
729	3202	
730	3201	
731	3202	
732	3201	
733	3200	
734	3199	
735	3200	
736	3200	
737	3200	
738	3199	
739	3198	
740	3198	
741	3197	
742	3196	
743	3197	
744	3198	
745	3197	
746	3197	
747	3196	
748	3195	
749	3195	
750	3195	
751	3195	
752	3195	
753	3194	
754	3193	
755	3192	
756	3191	
757	3192	
758	3193	
759	3193	
760	3192	
761	3191	
762	3191	
763	3191	
764	3192	
765	3190	
766	3190	
767	3189	
768	3190	
769	3190	
770	3189	
771	3188	
772	3189	
773	3188	
774	3189	
775	3189	
776	3187	
777	3187	
778	3186	
779	3186	
780	3186	
781	3187	
782	3186	
783	3185	
784	3185	
785	3184	
786	3185	
787	3186	
788	3185	
789	3183	
790	3183	
791	3184	
792	3183	
793	3184	
794	3183	
795	3181	
796	3182	
797	3182	
798	3183	
799	3182	
800	3181	
801	3180	
802	3180	
803	3181	
804	3180	
805	3179	
806	3179	
807	3178	
808	3179	
809	3179	
810	3178	
811	3179	
812	3177	
813	3176	
814	3176	
815	3177	
816	3177	
817	3176	
818	3175	
819	3174	
820	3173	
821	3174	
822	3174	
823	3174	
824	3173	
825	3172	
826	3172	
827	3172	
828	3171	
829	3171	
830	3169	
831	3171	
832	3171	
833	3170	
834	3168	
835	3168	
836	3168	
837	3168	
838	3168	
839	3167	
840	3165	
841	3165	
842	3167	
843	3167	
844	3164	
845	3164	
846	3165	
847	3165	
848	3163	
849	3162	
850	3162	
851	3163	
852	3163	
853	3161	
854	3161	
855	3161	
856	3160	
857	3160	
858	3159	
859	3161	
860	3159	
861	3158	
862	3157	
863	3158	
864	3157	
865	3157	
866	3156	
867	3156	
868	3156	
869	3155	
870	3155	
871	3155	
872	3154	
873	3153	
874	3153	
875	3153	
876	3152	
877	3151	
878	3152	
879	3152	
880	3151	
881	3149	
882	3150	
883	3151	
884	3149	
885	3147	
886	3148	
887	3149	
888	3148	
889	3146	
890	3147	
891	3146	
892	3147	
893	3145	
894	3144	
895	3144	
896	3144	
897	3144	
898	3143	
899	3142	
900	3142	
901	3142	
902	3143	
903	3142	
904	3140	
905	3140	
906	3140	
907	3140	
908	3140	
909	3138	
910	3136	
911	3138	
912	3137	
913	3136	
914	3136	
915	3136	
916	3136	
917	3134	
918	3134	
919	3134	
920	3134	
921	3134	
922	3132	
923	3133	
924	3132	
925	3132	
926	3130	
927	3129	
928	3130	
929	3130	
930	3130	
931	3128	
932	3128	
933	3128	
934	3129	
935	3129	
936	3127	
937	3126	
938	3126	
939	3128	
940	3127	
941	3126	
942	3124	
943	3123	
944	3125	
945	3125	
946	3123	
947	3123	
948	3123	
949	3123	
950	3122	
951	3120	
952	3120	
953	3120	
954	3120	
955	3118	
956	3118	
957	3118	
958	3118	
959	3117	
960	3116	
961	3115	
962	3116	
963	3115	
964	3115	
965	3114	
966	3114	
967	3115	
968	3114	
969	3113	
970	3113	
971	3114	
972	3114	
973	3113	
974	3113	
975	3113	
976	3113	
977	3112	
978	3111	
979	3110	
980	3111	
981	3110	
982	3109	
983	3110	
984	3111	
985	3110	
986	3109	
987	3109	
988	3109	
989	3108	
990	3107	
991	3108	
992	3107	
993	3105	
994	3105	
995	3106	
996	3105	
997	3103	
998	3103	
999	3103	
1000	3101	
1001	3100	
1002	3099	
1003	3099	
1004	3099	
1005	3098	
1006	3096	
1007	3094	
1008	3095	
1009	3094	
1010	3092	
1011	3091	
1012	3090	
1013	3089	
1014	3088	
1015	3086	
1016	3085	
1017	3085	
1018	3085	
1019	3082	
1020	3081	
1021	3082	
1022	3080	
1023	3079	
1024	3078	
1025	3078	
1026	3078	
1027	3076	
1028	3075	
1029	3075	
1030	3075	
1031	3073	
1032	3073	
1033	3072	
1034	3072	
1035	3072	
1036	3072	
1037	3070	
1038	3071	
1039	3071	
1040	3070	
1041	3070	
1042	3070	
1043	3071	
1044	3070	
1045	3069	
1046	3070	
1047	3070	
1048	3069	
1049	3069	
1050	3070	
1051	3070	
1052	3069	
1053	3070	
1054	3071	
1055	3070	
1056	3070	
1057	3071	
1058	3070	
1059	3070	
1060	3070	
1061	3070	
1062	3070	
1063	3070	
1064	3070	
1065	3071	
1066	3069	
1067	3069	
1068	3069	
1069	3069	
1070	3069	
1071	3068	
1072	3068	
1073	3068	
1074	3067	
1075	3067	
1076	3068	
1077	3066	
1078	3066	
1079	3067	
1080	3066	
1081	3065	
1082	3065	
1083	3063	
1084	3064	
1085	3065	
1086	3064	
1087	3064	
1088	3062	
1089	3063	
1090	3063	
1091	3062	
1092	3061	
1093	3061	
1094	3061	
1095	3061	
1096	3060	
1097	3059	
1098	3060	
1099	3059	
1100	3060	
1101	3059	
1102	3059	
1103	3058	
1104	3058	
1105	3058	
1106	3058	
1107	3057	
1108	3057	
1109	3057	
1110	3057	
1111	3056	
1112	3056	
1113	3058	
1114	3058	
1115	3057	
1116	3056	
1117	3057	
1118	3058	
1119	3058	
1120	3056	
1121	3056	
1122	3058	
1123	3057	
1124	3056	
1125	3058	
1126	3057	
1127	3057	
1128	3056	
1129	3058	
1130	3058	
1131	3056	
1132	3057	
1133	3058	
1134	3059	
1135	3059	
1136	3058	
1137	3058	
1138	3059	
1139	3059	
1140	3058	
1141	3058	
1142	3059	
1143	3059	
1144	3060	
1145	3060	
1146	3059	
1147	3060	
1148	3060	
1149	3060	
1150	3058	
1151	3059	
1152	3060	
1153	3060	
1154	3059	
1155	3059	
1156	3060	
1157	3061	
1158	3060	
1159	3061	
1160	3061	
1161	3061	
1162	3061	
1163	3061	
1164	3062	
1165	3062	
1166	3061	
1167	3062	
1168	3063	
1169	3061	
1170	3062	
1171	3062	
1172	3063	
1173	3062	
1174	3064	
1175	3062	
1176	3063	
1177	3063	
1178	3064	
1179	3063	
1180	3063	
1181	3064	
1182	3064	
1183	3064	
1184	3064	
1185	3064	
1186	3065	
1187	3065	
1188	3064	
1189	3064	
1190	3064	
1191	3066	
1192	3065	
1193	3064	
1194	3064	
1195	3065	
1196	3066	
1197	3065	
1198	3065	
1199	3064	
1200	3065	
1201	3065	
1202	3065	
1203	3064	
1204	3065	
1205	3066	
1206	3066	
1207	3065	
1208	3065	
1209	3066	
1210	3065	
1211	3066	
1212	3065	
1213	3065	
1214	3065	
1215	3066	
1216	3067	
1217	3065	
1218	3065	
1219	3065	
1220	3065	
1221	3066	
1222	3066	
1223	3067	
1224	3066	
1225	3066	
1226	3066	
1227	3066	
1228	3067	
1229	3066	
1230	3067	
1231	3066	
1232	3067	
1233	3068	
1234	3066	
1235	3067	
1236	3067	
1237	3067	
1238	3066	
1239	3066	
1240	3066	
1241	3066	
1242	3066	
1243	3067	
1244	3066	
1245	3067	
1246	3067	
1247	3067	
1248	3066	
1249	3067	
1250	3067	
1251	3066	
1252	3065	
1253	3067	
1254	3066	
1255	3066	
1256	3066	
1257	3066	
1258	3066	
1259	3065	
1260	3064	
1261	3064	
1262	3066	
1263	3064	
1264	3064	
1265	3064	
1266	3064	
1267	3063	
1268	3062	
1269	3063	
1270	3063	
1271	3064	
1272	3063	
1273	3062	
1274	3063	
1275	3063	
1276	3062	
1277	3061	
1278	3061	
1279	3061	
1280	3061	
1281	3060	
1282	3061	
1283	3060	
1284	3061	
1285	3058	
1286	3060	
1287	3059	
1288	3059	
1289	3058	
1290	3058	
1291	3058	
1292	3058	
1293	3058	
1294	3056	
1295	3057	
1296	3056	
1297	3055	
1298	3056	
1299	3056	
1300	3054	
1301	3054	
1302	3053	
1303	3054	
1304	3054	
1305	3052	
1306	3051	
1307	3052	
1308	3052	
1309	3051	
1310	3050	
1311	3050	
1312	3051	
1313	3050	
1314	3049	
1315	3049	
1316	3049	
1317	3049	
1318	3048	
1319	3047	
1320	3046	
1321	3047	
1322	3046	
1323	3046	
1324	3045	
1325	3045	
1326	3045	
1327	3045	
1328	3044	
1329	3044	
1330	3044	
1331	3044	
1332	3042	
1333	3041	
1334	3043	
1335	3042	
1336	3042	
1337	3041	
1338	3040	
1339	3040	
1340	3040	
1341	3040	
1342	3039	
1343	3038	
1344	3039	
1345	3039	
1346	3038	
1347	3037	
1348	3038	
1349	3038	
1350	3038	
1351	3037	
1352	3036	
1353	3036	
1354	3036	
1355	3036	
1356	3036	
1357	3036	
1358	3034	
1359	3035	
1360	3035	
1361	3034	
1362	3034	
1363	3033	
1364	3033	
1365	3034	
1366	3034	
1367	3033	
1368	3032	
1369	3031	
1370	3032	
1371	3031	
1372	3032	
1373	3031	
1374	3030	
1375	3030	
1376	3030	
1377	3031	
1378	3030	
1379	3028	
1380	3028	
1381	3028	
1382	3028	
1383	3029	
1384	3029	
1385	3027	
1386	3027	
1387	3026	
1388	3027	
1389	3027	
1390	3026	
1391	3026	
1392	3025	
1393	3025	
1394	3025	
1395	3025	
1396	3024	
1397	3023	
1398	3023	
1399	3023	
1400	3024	
1401	3023	
1402	3022	
1403	3022	
1404	3023	
1405	3022	
1406	3022	
1407	3020	
1408	3022	
1409	3022	
1410	3021	
1411	3020	
1412	3020	
1413	3020	
1414	3021	
1415	3019	
1416	3018	
1417	3018	
1418	3019	
1419	3017	
1420	3016	
1421	3017	
1422	3018	
1423	3017	
1424	3017	
1425	3015	
1426	3016	
1427	3015	
1428	3016	
1429	3014	
1430	3014	
1431	3014	
1432	3014	
1433	3014	
1434	3014	
1435	3012	
1436	3013	
1437	3013	
1438	3014	
1439	3013	
1440	3011	
1441	3010	
1442	3011	
1443	3011	
1444	3011	
1445	3010	
1446	3009	
1447	3010	
1448	3009	
1449	3010	
1450	3009	
1451	3009	
1452	3009	
1453	3008	
1454	3007	
1455	3007	
1456	3007	
1457	3007	
1458	3007	
1459	3007	
1460	3006	
1461	3006	
1462	3007	
1463	3006	
1464	3005	
1465	3005	
1466	3005	
1467	3006	
1468	3005	
1469	3005	
1470	3004	
1471	3004	
1472	3003	
1473	3003	
1474	3004	
1475	3003	
1476	3003	
1477	3002	
1478	3001	
1479	3003	
1480	3002	
1481	3000	
1482	3000	
1483	3001	
1484	3000	
1485	3000	
1486	2999	
1487	2999	
1488	3000	
1489	3000	
1490	2998	
1491	2998	
1492	2998	
1493	3000	
1494	2998	
1495	2997	
1496	2996	
1497	2998	
1498	2997	
1499	2996	
1500	2996	
1501	2996	
1502	2997	
1503	2996	
1504	2995	
1505	2995	
1506	2996	
1507	2995	
1508	2994	
1509	2994	
1510	2994	
1511	2993	
1512	2992	
1513	2993	
1514	2993	
1515	2993	
1516	2992	
1517	2991	
1518	2992	
1519	2992	
1520	2990	
1521	2990	
1522	2990	
1523	2991	
1524	2990	
1525	2990	
1526	2988	
1527	2990	
1528	2989	
1529	2989	
1530	2988	
1531	2989	
1532	2989	
1533	2987	
1534	2987	
1535	2987	
1536	2988	
1537	2986	
1538	2987	
1539	2987	
1540	2986	
1541	2986	
1542	2987	
1543	2986	
1544	2984	
1545	2986	
1546	2986	
1547	2984	
1548	2984	
1549	2984	
1550	2984	
1551	2983	
1552	2983	
1553	2984	
1554	2984	
1555	2983	
1556	2983	
1557	2983	
1558	2983	
1559	2983	
1560	2982	
1561	2982	
1562	2982	
1563	2982	
1564	2981	
1565	2981	
1566	2982	
1567	2981	
1568	2980	
1569	2980	
1570	2981	
1571	2979	
1572	2980	
1573	2981	
1574	2981	
1575	2979	
1576	2979	
1577	2980	
1578	2980	
1579	2978	
1580	2978	
1581	2978	
1582	2978	
1583	2979	
1584	2977	
1585	2978	
1586	2978	
1587	2978	
1588	2977	
1589	2975	
1590	2976	
1591	2978	
1592	2976	
1593	2976	
1594	2975	
1595	2976	
1596	2976	
1597	2975	
1598	2975	
1599	2976	
1600	2975	
1601	2975	
1602	2974	
1603	2975	
1604	2975	
1605	2975	
1606	2973	
1607	2973	
1608	2974	
1609	2974	
1610	2974	
1611	2973	
1612	2973	
1613	2972	
1614	2972	
1615	2972	
1616	2974	
1617	2973	
1618	2971	
1619	2972	
1620	2972	
1621	2972	
1622	2971	
1623	2970	
1624	2971	
1625	2970	
1626	2970	
1627	2971	
1628	2971	
1629	2970	
1630	2970	
1631	2970	
1632	2969	
1633	2969	
1634	2970	
1635	2970	
1636	2969	
1637	2969	
1638	2968	
1639	2968	
1640	2969	
1641	2969	
1642	2969	
1643	2967	
1644	2968	
1645	2969	
1646	2969	
1647	2969	
1648	2968	
1649	2967	
1650	2967	
1651	2968	
1652	2967	
1653	2967	
1654	2967	
1655	2967	
1656	2967	
1657	2966	
1658	2966	
1659	2965	
1660	2967	
1661	2966	
1662	2965	
1663	2965	
1664	2965	
1665	2966	
1666	2964	
1667	2964	
1668	2964	
1669	2965	
1670	2964	
1671	2962	
1672	2964	
1673	2963	
1674	2962	
1675	2962	
1676	2961	
1677	2963	
1678	2962	
1679	2961	
1680	2961	
1681	2963	
1682	2962	
1683	2960	
1684	2961	
1685	2961	
1686	2959	
1687	2959	
1688	2960	
1689	2959	
1690	2959	
1691	2959	
1692	2959	
1693	2959	
1694	2959	
1695	2957	
1696	2957	
1697	2958	
1698	2958	
1699	2958	
1700	2956	
1701	2957	
1702	2957	
1703	2956	
1704	2956	
1705	2956	
1706	2954	
1707	2956	
1708	2956	
1709	2954	
1710	2953	
1711	2955	
1712	2953	
1713	2953	
1714	2952	
1715	2953	
1716	2953	
1717	2952	
1718	2953	
1719	2952	
1720	2951	
1721	2950	
1722	2952	
1723	2950	
1724	2949	
1725	2950	
1726	2950	
1727	2949	
1728	2949	
1729	2949	
1730	2948	
1731	2948	
1732	2949	
1733	2947	
1734	2946	
1735	2948	
1736	2946	
1737	2945	
1738	2946	
1739	2946	
1740	2944	
1741	2944	
1742	2946	
1743	2943	
1744	2944	
1745	2942	
1746	2942	
1747	2943	
1748	2941	
1749	2941	
1750	2942	
1751	2940	
1752	2940	
1753	2939	
1754	2940	
1755	2940	
1756	2940	
1757	2938	
1758	2937	
1759	2937	
1760	2938	
1761	2937	
1762	2936	
1763	2935	
1764	2935	
1765	2936	
1766	2936	
1767	2934	
1768	2933	
1769	2934	
1770	2934	
1771	2933	
1772	2933	
1773	2933	
1774	2933	
1775	2933	
1776	2931	
1777	2932	
1778	2932	
1779	2932	
1780	2931	
1781	2930	
1782	2932	
1783	2930	
1784	2930	
1785	2929	
1786	2930	
1787	2930	
1788	2928	
1789	2928	
1790	2929	
1791	2929	
1792	2928	
1793	2927	
1794	2926	
1795	2927	
1796	2927	
1797	2926	
1798	2925	
1799	2926	
1800	2926	
1801	2925	
1802	2924	
1803	2923	
1804	2924	
1805	2924	
1806	2924	
1807	2924	
1808	2922	
1809	2922	
1810	2923	
1811	2923	
1812	2922	
1813	2921	
1814	2923	
1815	2923	
1816	2922	
1817	2922	
1818	2922	
1819	2923	
1820	2922	
1821	2922	
1822	2921	
1823	2921	
1824	2921	
1825	2921	
1826	2921	
1827	2921	
1828	2921	
1829	2920	
1830	2919	
1831	2920	
1832	2921	
1833	2920	
1834	2920	
1835	2919	
1836	2918	
1837	2919	
1838	2919	
1839	2918	
1840	2919	
1841	2917	
1842	2916	
1843	2915	
1844	2916	
1845	2916	
1846	2915	
1847	2913	
1848	2911	
1849	2912	
1850	2912	
1851	2912	
1852	2909	
1853	2907	
1854	2907	
1855	2907	
1856	2906	
1857	2905	
1858	2904	
1859	2903	
1860	2903	
1861	2901	
1862	2899	
1863	2899	
1864	2899	
1865	2899	
1866	2897	
1867	2895	
1868	2895	
1869	2894	
1870	2894	
1871	2892	
1872	2892	
1873	2892	
1874	2892	
1875	2890	
1876	2890	
1877	2889	
1878	2889	
1879	2889	
1880	2889	
1881	2888	
1882	2888	
1883	2887	
1884	2888	
1885	2888	
1886	2889	
1887	2888	
1888	2887	
1889	2887	
1890	2887	
1891	2888	
1892	2888	
1893	2888	
1894	2888	
1895	2887	
1896	2887	
1897	2887	
1898	2889	
1899	2889	
1900	2889	
1901	2889	
1902	2888	
1903	2888	
1904	2889	
1905	2890	
1906	2890	
1907	2888	
1908	2888	
1909	2889	
1910	2889	
1911	2889	
1912	2890	
1913	2889	
1914	2889	
1915	2888	
1916	2888	
1917	2888	
1918	2889	
1919	2888	
1920	2888	
1921	2887	
1922	2887	
1923	2887	
1924	2888	
1925	2888	
1926	2887	
1927	2886	
1928	2886	
1929	2886	
1930	2886	
1931	2885	
1932	2885	
1933	2885	
1934	2885	
1935	2884	
1936	2883	
1937	2883	
1938	2882	
1939	2883	
1940	2883	
1941	2883	
1942	2883	
1943	2882	
1944	2881	
1945	2882	
1946	2882	
1947	2882	
1948	2881	
1949	2880	
1950	2880	
1951	2880	
1952	2881	
1953	2880	
1954	2879	
1955	2879	
1956	2879	
1957	2880	
1958	2880	
1959	2878	
1960	2878	
1961	2880	
1962	2880	
1963	2880	
1964	2880	
1965	2880	
1966	2879	
1967	2879	
1968	2880	
1969	2880	
1970	2879	
1971	2880	
1972	2880	
1973	2880	
1974	2880	
1975	2882	
1976	2882	
1977	2881	
1978	2881	
1979	2882	
1980	2882	
1981	2883	
1982	2882	
1983	2882	
1984	2882	
1985	2884	
1986	2883	
1987	2882	
1988	2883	
1989	2882	
1990	2884	
1991	2884	
1992	2884	
1993	2883	
1994	2884	
1995	2885	
1996	2885	
1997	2885	
1998	2885	
1999	2885	
2000	2884	
2001	2885	
2002	2886	
2003	2886	
2004	2886	
2005	2886	
2006	2886	
2007	2885	
2008	2886	
2009	2886	
2010	2887	
2011	2887	
2012	2887	
2013	2887	
2014	2887	
2015	2888	
2016	2888	
2017	2887	
2018	2887	
2019	2888	
2020	2889	
2021	2888	
2022	2888	
2023	2888	
2024	2887	
2025	2888	
2026	2888	
2027	2890	
2028	2888	
2029	2888	
2030	2890	
2031	2890	
2032	2890	
2033	2889	
2034	2889	
2035	2888	
2036	2890	
2037	2890	
2038	2891	
2039	2890	
2040	2890	
2041	2890	
2042	2889	
2043	2891	
2044	2891	
2045	2891	
2046	2890	
2047	2890	
2048	2891	
2049	2891	
2050	2890	
2051	2891	
2052	2890	
2053	2890	
2054	2891	
2055	2891	
2056	2889	
2057	2890	
2058	2891	
2059	2891	
2060	2891	
2061	2890	
2062	2890	
2063	2890	
2064	2891	
2065	2890	
2066	2890	
2067	2889	
2068	2890	
2069	2890	
2070	2891	
2071	2891	
2072	2891	
2073	2890	
2074	2890	
2075	2890	
2076	2892	
2077	2891	
2078	2890	
2079	2891	
2080	2890	
2081	2890	
2082	2892	
2083	2892	
2084	2890	
2085	2889	
2086	2890	
2087	2890	
2088	2891	
2089	2891	
2090	2890	
2091	2890	
2092	2890	
2093	2889	
2094	2890	
2095	2890	
2096	2891	
2097	2890	
2098	2889	
2099	2889	
2100	2888	
2101	2890	
2102	2889	
2103	2889	
2104	2887	
2105	2888	
2106	2888	
2107	2888	
2108	2889	
2109	2887	
2110	2886	
2111	2888	
2112	2888	
2113	2888	
2114	2887	
2115	2886	
2116	2886	
2117	2887	
2118	2886	
2119	2886	
2120	2885	
2121	2885	
2122	2885	
2123	2886	
2124	2885	
2125	2885	
2126	2884	
2127	2884	
2128	2884	
2129	2885	
2130	2884	
2131	2883	
2132	2882	
2133	2882	
2134	2883	
2135	2883	
2136	2882	
2137	2882	
2138	2882	
2139	2879	
2140	2880	
2141	2880	
2142	2880	
2143	2880	
2144	2880	
2145	2880	
2146	2879	
2147	2878	
2148	2878	
2149	2876	
2150	2878	
2151	2876	
2152	2876	
2153	2877	
2154	2877	
2155	2876	
2156	2876	
2157	2875	
2158	2874	
2159	2874	
2160	2874	
2161	2874	
2162	2874	
2163	2874	
2164	2872	
2165	2872	
2166	2871	
2167	2872	
2168	2872	
2169	2873	
2170	2872	
2171	2871	
2172	2870	
2173	2871	
2174	2872	
2175	2870	
2176	2869	
2177	2869	
2178	2870	
2179	2870	
2180	2870	
2181	2869	
2182	2869	
2183	2868	
2184	2868	
2185	2869	
2186	2868	
2187	2868	
2188	2867	
2189	2867	
2190	2868	
2191	2867	
2192	2866	
2193	2865	
2194	2866	
2195	2866	
2196	2866	
2197	2865	
2198	2864	
2199	2866	
2200	2865	
2201	2865	
2202	2864	
2203	2864	
2204	2863	
2205	2864	
2206	2865	
2207	2865	
2208	2863	
2209	2862	
2210	2862	
2211	2864	
2212	2863	
2213	2862	
2214	2861	
2215	2861	
2216	2862	
2217	2862	
2218	2861	
2219	2862	
2220	2862	
2221	2861	
2222	2861	
2223	2860	
2224	2860	
2225	2859	
2226	2859	
2227	2859	
2228	2858	
2229	2858	
2230	2858	
2231	2857	
2232	2858	
2233	2858	
2234	2858	
2235	2858	
2236	2858	
2237	2857	
2238	2856	
2239	2856	
2240	2855	
2241	2856	
2242	2856	
2243	2855	
2244	2855	
2245	2855	
2246	2854	
2247	2854	
2248	2855	
2249	2854	
2250	2854	
2251	2853	
2252	2853	
2253	2854	
2254	2854	
2255	2852	
2256	2852	
2257	2853	
2258	2853	
2259	2853	
2260	2852	
2261	2851	
2262	2851	
2263	2851	
2264	2851	
2265	2851	
2266	2851	
2267	2850	
2268	2851	
2269	2850	
2270	2850	
2271	2850	
2272	2850	
2273	2850	
2274	2850	
2275	2850	
2276	2849	
2277	2848	
2278	2849	
2279	2849	
2280	2849	
2281	2850	
2282	2848	
2283	2848	
2284	2849	
2285	2848	
2286	2849	
2287	2848	
2288	2847	
2289	2848	
2290	2848	
2291	2848	
2292	2847	
2293	2847	
2294	2847	
2295	2849	
2296	2848	
2297	2847	
2298	2847	
2299	2847	
2300	2847	
2301	2848	
2302	2848	
2303	2848	
2304	2847	
2305	2846	
2306	2847	
2307	2846	
2308	2847	
2309	2848	
2310	2846	
2311	2847	
2312	2846	
2313	2846	
2314	2847	
2315	2846	
2316	2846	
2317	2846	
2318	2846	
2319	2846	
2320	2846	
2321	2845	
2322	2846	
2323	2846	
2324	2845	
2325	2846	
2326	2846	
2327	2846	
2328	2846	
2329	2846	
2330	2845	
2331	2845	
2332	2845	
2333	2846	
2334	2846	
2335	2844	
2336	2844	
2337	2845	
2338	2845	
2339	2845	
2340	2844	
2341	2843	
2342	2844	
2343	2845	
2344	2844	
2345	2844	
2346	2843	
2347	2843	
2348	2843	
2349	2844	
2350	2844	
2351	2842	
2352	2842	
2353	2842	
2354	2842	
2355	2842	
2356	2842	
2357	2842	
2358	2841	
2359	2841	
2360	2841	
2361	2842	
2362	2841	
2363	2841	
2364	2841	
2365	2840	
2366	2839	
2367	2840	
2368	2840	
2369	2840	
2370	2839	
2371	2839	
2372	2839	
2373	2840	
2374	2838	
2375	2838	
2376	2838	
2377	2837	
2378	2838	
2379	2838	
2380	2837	
2381	2836	
2382	2837	
2383	2838	
2384	2837	
2385	2836	
2386	2835	
2387	2836	
2388	2837	
2389	2837	
2390	2835	
2391	2835	
2392	2834	
2393	2835	
2394	2836	
2395	2834	
2396	2834	
2397	2834	
2398	2835	
2399	2834	
2400	2833	
2401	2833	
2402	2833	
2403	2834	
2404	2833	
2405	2832	
2406	2832	
2407	2833	
2408	2833	
2409	2832	
2410	2832	
2411	2833	
2412	2832	
2413	2830	
2414	2832	
2415	2833	
2416	2832	
2417	2830	
2418	2831	
2419	2833	
2420	2831	
2421	2830	
2422	2830	
2423	2830	
2424	2832	
2425	2831	
2426	2830	
2427	2829	
2428	2830	
2429	2831	
2430	2831	
2431	2831	
2432	2829	
2433	2829	
2434	2831	
2435	2831	
2436	2831	
2437	2829	
2438	2829	
2439	2831	
2440	2830	
2441	2829	
2442	2829	
2443	2829	
2444	2830	
2445	2830	
2446	2829	
2447	2828	
2448	2829	
2449	2829	
2450	2829	
2451	2828	
2452	2829	
2453	2829	
2454	2830	
2455	2829	
2456	2828	
2457	2828	
2458	2828	
2459	2829	
2460	2830	
2461	2829	
2462	2828	
2463	2828	
2464	2829	
2465	2829	
2466	2828	
2467	2828	
2468	2828	
2469	2830	
2470	2829	
2471	2828	
2472	2828	
2473	2828	
2474	2828	
2475	2828	
2476	2828	
2477	2827	
2478	2828	
2479	2828	
2480	2828	
2481	2828	
2482	2828	
2483	2827	
2484	2827	
2485	2827	
2486	2827	
2487	2828	
2488	2827	
2489	2827	
2490	2827	
2491	2826	
2492	2826	
2493	2827	
2494	2827	
2495	2827	
2496	2826	
2497	2825	
2498	2825	
2499	2826	
2500	2827	
2501	2826	
2502	2825	
2503	2826	
2504	2827	
2505	2825	
2506	2825	
2507	2825	
2508	2826	
2509	2825	
2510	2824	
2511	2824	
2512	2824	
2513	2825	
2514	2825	
2515	2824	
2516	2823	
2517	2824	
2518	2824	
2519	2823	
2520	2824	
2521	2823	
2522	2823	
2523	2822	
2524	2822	
2525	2822	
2526	2823	
2527	2823	
2528	2822	
2529	2821	
2530	2823	
2531	2822	
2532	2821	
2533	2822	
2534	2820	
2535	2821	
2536	2821	
2537	2821	
2538	2820	
2539	2820	
2540	2820	
2541	2819	
2542	2820	
2543	2820	
2544	2820	
2545	2819	
2546	2819	
2547	2818	
2548	2818	
2549	2819	
2550	2819	
2551	2819	
2552	2817	
2553	2818	
2554	2818	
2555	2818	
2556	2818	
2557	2817	
2558	2816	
2559	2816	
2560	2817	
2561	2817	
2562	2816	
2563	2815	
2564	2815	
2565	2816	
2566	2816	
2567	2816	
2568	2815	
2569	2814	
2570	2815	
2571	2815	
2572	2814	
2573	2813	
2574	2813	
2575	2813	
2576	2814	
2577	2813	
2578	2812	
2579	2812	
2580	2813	
2581	2812	
2582	2812	
2583	2811	
2584	2812	
2585	2811	
2586	2811	
2587	2809	
2588	2809	
2589	2809	
2590	2810	
2591	2809	
2592	2808	
2593	2807	
2594	2808	
2595	2808	
2596	2808	
2597	2807	
2598	2806	
2599	2806	
2600	2806	
2601	2807	
2602	2806	
2603	2805	
2604	2805	
2605	2804	
2606	2804	
2607	2803	
2608	2804	
2609	2804	
2610	2804	
2611	2804	
2612	2803	
2613	2803	
2614	2802	
2615	2803	
2616	2803	
2617	2802	
2618	2802	
2619	2801	
2620	2802	
2621	2801	
2622	2801	
2623	2801	
2624	2802	
2625	2801	
2626	2800	
2627	2799	
2628	2799	
2629	2799	
2630	2799	
2631	2799	
2632	2800	
2633	2799	
2634	2798	
2635	2797	
2636	2797	
2637	2798	
2638	2798	
2639	2797	
2640	2797	
2641	2796	
2642	2796	
2643	2797	
2644	2796	
2645	2796	
2646	2795	
2647	2795	
2648	2795	
2649	2795	
2650	2795	
2651	2795	
2652	2795	
2653	2794	
2654	2794	
2655	2794	
2656	2795	
2657	2795	
2658	2794	
2659	2793	
2660	2794	
2661	2794	
2662	2795	
2663	2795	
2664	2794	
2665	2794	
2666	2794	
2667	2794	
2668	2795	
2669	2794	
2670	2793	
2671	2794	
2672	2795	
2673	2794	
2674	2795	
2675	2793	
2676	2793	
2677	2793	
2678	2792	
2679	2792	
2680	2793	
2681	2793	
2682	2793	
2683	2793	
2684	2792	
2685	2791	
2686	2790	
2687	2790	
2688	2790	
2689	2790	
2690	2790	
2691	2788	
2692	2788	
2693	2786	
2694	2786	
2695	2786	
2696	2786	
2697	2784	
2698	2784	
2699	2781	
2700	2781	
2701	2780	
2702	2779	
2703	2778	
2704	2778	
2705	2777	
2706	2776	
2707	2776	
2708	2775	
2709	2774	
2710	2774	
2711	2773	
2712	2772	
2713	2771	
2714	2770	
2715	2770	
2716	2770	
2717	2770	
2718	2769	
2719	2768	
2720	2767	
2721	2766	
2722	2766	
2723	2768	
2724	2768	
2725	2766	
2726	2766	
2727	2765	
2728	2766	
2729	2766	
2730	2766	
2731	2766	
2732	2766	
2733	2766	
2734	2765	
2735	2766	
2736	2766	
2737	2767	
2738	2768	
2739	2768	
2740	2768	
2741	2767	
2742	2767	
2743	2767	
2744	2768	
2745	2768	
2746	2768	
2747	2769	
2748	2768	
2749	2770	
2750	2770	
2751	2770	
2752	2771	
2753	2770	
2754	2770	
2755	2769	
2756	2769	
2757	2769	
2758	2770	
2759	2771	
2760	2771	
2761	2771	
2762	2770	
2763	2769	
2764	2770	
2765	2769	
2766	2769	
2767	2770	
2768	2771	
2769	2770	
2770	2769	
2771	2769	
2772	2768	
2773	2768	
2774	2769	
2775	2768	
2776	2769	
2777	2769	
2778	2769	
2779	2768	
2780	2769	
2781	2768	
2782	2768	
2783	2768	
2784	2768	
2785	2767	
2786	2767	
2787	2766	
2788	2765	
2789	2765	
2790	2766	
2791	2765	
2792	2765	
2793	2766	
2794	2766	
2795	2766	
2796	2766	
2797	2764	
2798	2764	
2799	2765	
2800	2765	
2801	2765	
2802	2766	
2803	2766	
2804	2766	
2805	2766	
2806	2765	
2807	2765	
2808	2765	
2809	2765	
2810	2766	
2811	2767	
2812	2768	
2813	2767	
2814	2767	
2815	2767	
2816	2767	
2817	2766	
2818	2767	
2819	2769	
2820	2769	
2821	2769	
2822	2769	
2823	2769	
2824	2769	
2825	2769	
2826	2770	
2827	2771	
2828	2771	
2829	2771	
2830	2770	
2831	2771	
2832	2772	
2833	2772	
2834	2772	
2835	2772	
2836	2773	
2837	2774	
2838	2774	
2839	2774	
2840	2773	
2841	2774	
2842	2775	
2843	2776	
2844	2776	
2845	2776	
2846	2777	
2847	2775	
2848	2776	
2849	2777	
2850	2779	
2851	2779	
2852	2779	
2853	2778	
2854	2778	
2855	2778	
2856	2779	
2857	2781	
2858	2781	
2859	2781	
2860	2780	
2861	2780	
2862	2781	
2863	2783	
2864	2783	
2865	2783	
2866	2783	
2867	2782	
2868	2784	
2869	2784	
2870	2785	
2871	2784	
2872	2784	
2873	2784	
2874	2786	
2875	2787	
2876	2787	
2877	2786	
2878	2786	
2879	2786	
2880	2788	
2881	2788	
2882	2788	
2883	2788	
2884	2787	
2885	2788	
2886	2788	
2887	2790	
2888	2789	
2889	2789	
2890	2789	
2891	2789	
2892	2790	
2893	2791	
2894	2791	
2895	2791	
2896	2791	
2897	2791	
2898	2791	
2899	2792	
2900	2792	
2901	2792	
2902	2792	
2903	2792	
2904	2793	
2905	2793	
2906	2793	
2907	2793	
2908	2794	
2909	2796	
2910	2795	
2911	2794	
2912	2795	
2913	2796	
2914	2796	
2915	2796	
2916	2796	
2917	2796	
2918	2797	
2919	2797	
2920	2798	
2921	2797	
2922	2797	
2923	2797	
2924	2798	
2925	2797	
2926	2798	
2927	2797	
2928	2799	
2929	2799	
2930	2799	
2931	2799	
2932	2800	
2933	2800	
2934	2800	
2935	2799	
2936	2800	
2937	2801	
2938	2799	
2939	2800	
2940	2801	
2941	2801	
2942	2801	
2943	2800	
2944	2801	
2945	2801	
2946	2801	
2947	2800	
2948	2801	
2949	2801	
2950	2802	
2951	2801	
2952	2801	
2953	2802	
2954	2803	
2955	2802	
2956	2802	
2957	2801	
2958	2801	
2959	2803	
2960	2803	
2961	2803	
2962	2802	
2963	2802	
2964	2802	
2965	2802	
2966	2803	
2967	2804	
2968	2803	
2969	2802	
2970	2802	
2971	2803	
2972	2803	
2973	2804	
2974	2803	
2975	2802	
2976	2802	
2977	2802	
2978	2802	
2979	2804	
2980	2803	
2981	2802	
2982	2802	
2983	2802	
2984	2803	
2985	2803	
2986	2802	
2987	2802	
2988	2802	
2989	2802	
2990	2802	
2991	2803	
2992	2802	
2993	2802	
2994	2801	
2995	2801	
2996	2800	
2997	2802	
2998	2802	
2999	2802	
3000	2801	
3001	2801	
3002	2800	
3003	2801	
3004	2801	
3005	2801	
3006	2800	
3007	2799	
3008	2799	
3009	2800	
3010	2800	
3011	2800	
3012	2800	
3013	2800	
3014	2800	
3015	2800	
3016	2798	
3017	2799	
3018	2798	
3019	2798	
3020	2799	
3021	2798	
3022	2799	
3023	2798	
3024	2798	
3025	2797	
3026	2797	
3027	2797	
3028	2797	
3029	2798	
3030	2797	
3031	2797	
3032	2796	
3033	2796	
3034	2796	
3035	2796	
3036	2796	
3037	2796	
3038	2796	
3039	2795	
3040	2795	
3041	2795	
3042	2796	
3043	2795	
3044	2796	
3045	2796	
3046	2795	
3047	2795	
3048	2794	
3049	2793	
3050	2794	
3051	2793	
3052	2794	
3053	2794	
3054	2794	
3055	2794	
3056	2793	
3057	2792	
3058	2792	
3059	2793	
3060	2794	
3061	2794	
3062	2794	
3063	2792	
3064	2792	
3065	2792	
3066	2793	
3067	2793	
3068	2793	
3069	2792	
3070	2793	
3071	2792	
3072	2791	
3073	2791	
3074	2790	
3075	2791	
3076	2792	
3077	2791	
3078	2791	
3079	2791	
3080	2791	
3081	2790	
3082	2790	
3083	2789	
3084	2788	
3085	2789	
3086	2789	
3087	2790	
3088	2789	
3089	2788	
3090	2787	
3091	2788	
3092	2787	
3093	2787	
3094	2787	
3095	2788	
3096	2787	
3097	2788	
3098	2787	
3099	2787	
3100	2786	
3101	2786	
3102	2786	
3103	2785	
3104	2785	
3105	2784	
3106	2784	
3107	2785	
3108	2785	
3109	2785	
3110	2784	
3111	2784	
3112	2784	
3113	2783	
3114	2783	
3115	2782	
3116	2782	
3117	2782	
3118	2782	
3119	2782	
3120	2782	
3121	2783	
3122	2782	
3123	2781	
3124	2782	
3125	2780	
3126	2780	
3127	2780	
3128	2780	
3129	2780	
3130	2781	
3131	2781	
3132	2780	
3133	2779	
3134	2779	
3135	2778	
3136	2778	
3137	2778	
3138	2778	
3139	2778	
3140	2778	
3141	2778	
3142	2778	
3143	2778	
3144	2777	
3145	2777	
3146	2776	
3147	2776	
3148	2775	
3149	2776	
3150	2775	
3151	2776	
3152	2776	
3153	2776	
3154	2775	
3155	2776	
3156	2775	
3157	2774	
3158	2774	
3159	2774	
3160	2773	
3161	2773	
3162	2774	
3163	2775	
3164	2774	
3165	2774	
3166	2773	
3167	2773	
3168	2773	
3169	2773	
3170	2772	
3171	2773	
3172	2772	
3173	2773	
3174	2772	
3175	2771	
3176	2771	
3177	2771	
3178	2771	
3179	2771	
3180	2771	
3181	2771	
3182	2770	
3183	2771	
3184	2770	
3185	2769	
3186	2770	
3187	2768	
3188	2768	
3189	2768	
3190	2768	
3191	2768	
3192	2769	
3193	2769	
3194	2768	
3195	2768	
3196	2768	
3197	2767	
3198	2766	
3199	2766	
3200	2765	
3201	2766	
3202	2765	
3203	2766	
3204	2765	
3205	2765	
3206	2764	
3207	2763	
3208	2763	
3209	2762	
3210	2763	
3211	2763	
3212	2763	
3213	2762	
3214	2762	
3215	2762	
3216	2761	
3217	2762	
3218	2760	
3219	2760	
3220	2759	
3221	2759	
3222	2759	
3223	2759	
3224	2759	
3225	2759	
3226	2758	
3227	2759	
3228	2758	
3229	2757	
3230	2757	
3231	2756	
3232	2757	
3233	2756	
3234	2757	
3235	2756	
3236	2756	
3237	2755	
3238	2755	
3239	2754	
3240	2754	
3241	2754	
3242	2754	
3243	2755	
3244	2754	
3245	2754	
3246	2753	
3247	2753	
3248	2752	
3249	2750	
3250	2752	
3251	2751	
3252	2750	
3253	2752	
3254	2751	
3255	2750	
3256	2750	
3257	2751	
3258	2751	
3259	2750	
3260	2750	
3261	2750	
3262	2749	
3263	2749	
3264	2748	
3265	2748	
3266	2748	
3267	2747	
3268	2747	
3269	2747	
3270	2747	
3271	2747	
3272	2746	
3273	2746	
3274	2746	
3275	2746	
3276	2747	
3277	2748	
3278	2746	
3279	2746	
3280	2746	
3281	2745	
3282	2744	
3283	2744	
3284	2745	
3285	2744	
3286	2745	
3287	2744	
3288	2743	
3289	2743	
3290	2743	
3291	2743	
3292	2743	
3293	2743	
3294	2744	
3295	2743	
3296	2743	
3297	2742	
3298	2742	
3299	2743	
3300	2743	
3301	2742	
3302	2742	
3303	2742	
3304	2742	
3305	2741	
3306	2741	
3307	2742	
3308	2742	
3309	2742	
3310	2741	
3311	2740	
3312	2739	
3313	2740	
3314	2742	
3315	2740	
3316	2740	
3317	2739	
3318	2739	
3319	2740	
3320	2741	
3321	2740	
3322	2739	
3323	2739	
3324	2739	
3325	2738	
3326	2739	
3327	2740	
3328	2739	
3329	2737	
3330	2738	
3331	2738	
3332	2738	
3333	2740	
3334	2739	
3335	2738	
3336	2737	
3337	2737	
3338	2736	
3339	2737	
3340	2738	
3341	2738	
3342	2737	
3343	2735	
3344	2736	
3345	2735	
3346	2736	
3347	2737	
3348	2736	
3349	2736	
3350	2735	
3351	2735	
3352	2735	
3353	2735	
3354	2734	
3355	2734	
3356	2734	
3357	2733	
3358	2734	
3359	2734	
3360	2734	
3361	2733	
3362	2732	
3363	2732	
3364	2733	
3365	2733	
3366	2732	
3367	2732	
3368	2731	
3369	2732	
3370	2732	
3371	2731	
3372	2731	
3373	2730	
3374	2730	
3375	2730	
3376	2731	
3377	2730	
3378	2730	
3379	2730	
3380	2729	
3381	2728	
3382	2727	
3383	2728	
3384	2728	
3385	2728	
3386	2729	
3387	2728	
3388	2727	
3389	2727	
3390	2727	
3391	2727	
3392	2727	
3393	2726	
3394	2725	
3395	2725	
3396	2725	
3397	2725	
3398	2725	
3399	2725	
3400	2723	
3401	2724	
3402	2724	
3403	2724	
3404	2724	
3405	2722	
3406	2722	
3407	2723	
3408	2722	
3409	2722	
3410	2721	
3411	2721	
3412	2721	
3413	2721	
3414	2721	
3415	2720	
3416	2719	
3417	2719	
3418	2719	
3419	2719	
3420	2719	
3421	2719	
3422	2718	
3423	2718	
3424	2717	
3425	2716	
3426	2716	
3427	2716	
3428	2716	
3429	2716	
3430	2716	
3431	2715	
3432	2714	
3433	2713	
3434	2713	
3435	2713	
3436	2713	
3437	2713	
3438	2713	
3439	2712	
3440	2711	
3441	2711	
3442	2710	
3443	2710	
3444	2710	
3445	2710	
3446	2710	
3447	2710	
3448	2709	
3449	2708	
3450	2707	
3451	2707	
3452	2707	
3453	2706	
3454	2706	
3455	2706	
3456	2706	
3457	2706	
3458	2706	
3459	2705	
3460	2705	
3461	2704	
3462	2703	
3463	2705	
3464	2705	
3465	2704	
3466	2704	
3467	2703	
3468	2701	
3469	2702	
3470	2703	
3471	2702	
3472	2702	
3473	2701	
3474	2700	
3475	2699	
3476	2700	
3477	2700	
3478	2700	
3479	2699	
3480	2698	
3481	2698	
3482	2697	
3483	2697	
3484	2697	
3485	2698	
3486	2698	
3487	2697	
3488	2697	
3489	2696	
3490	2696	
3491	2696	
3492	2696	
3493	2696	
3494	2695	
3495	2695	
3496	2696	
3497	2696	
3498	2696	
3499	2695	
3500	2695	
3501	2696	
3502	2696	
3503	2695	
3504	2695	
3505	2694	
3506	2695	
3507	2694	
3508	2695	
3509	2695	
3510	2694	
3511	2693	
3512	2693	
3513	2693	
3514	2694	
3515	2694	
3516	2693	
3517	2692	
3518	2692	
3519	2692	
3520	2692	
3521	2691	
3522	2691	
3523	2690	
3524	2690	
3525	2689	
3526	2688	
3527	2688	
3528	2688	
3529	2687	
3530	2687	
3531	2686	
3532	2684	
3533	2683	
3534	2683	
3535	2683	
3536	2682	
3537	2681	
3538	2680	
3539	2678	
3540	2677	
3541	2676	
3542	2675	
3543	2676	
3544	2675	
3545	2674	
3546	2674	
3547	2672	
3548	2671	
3549	2671	
3550	2670	
3551	2670	
3552	2670	
3553	2669	
3554	2667	
3555	2667	
3556	2666	
3557	2666	
3558	2667	
3559	2666	
3560	2666	
3561	2666	
3562	2665	
3563	2665	
3564	2665	
3565	2665	
3566	2665	
3567	2664	
3568	2664	
3569	2665	
3570	2665	
3571	2666	
3572	2665	
3573	2665	
3574	2665	
3575	2666	
3576	2666	
3577	2666	
3578	2666	
3579	2667	
3580	2667	
3581	2667	
3582	2666	
3583	2666	
3584	2667	
3585	2668	
3586	2668	
3587	2667	
3588	2668	
3589	2668	
3590	2669	
3591	2668	
3592	2667	
3593	2667	
3594	2669	
3595	2668	
3596	2668	
3597	2667	
3598	2669	
3599	2668	
3600	2668	
3601	2667	
3602	2667	
3603	2668	
3604	2666	
3605	2666	
3606	2667	
3607	2666	
3608	2666	
3609	2666	
3610	2666	
3611	2665	
3612	2665	
3613	2665	
3614	2665	
3615	2664	
3616	2664	
3617	2664	
3618	2664	
3619	2664	
3620	2663	
3621	2662	
3622	2663	
3623	2663	
3624	2663	
3625	2662	
3626	2661	
3627	2661	
3628	2661	
3629	2662	
3630	2662	
3631	2661	
3632	2661	
3633	2661	
3634	2661	
3635	2661	
3636	2659	
3637	2661	
3638	2660	
3639	2661	
3640	2661	
3641	2660	
3642	2660	
3643	2659	
3644	2661	
3645	2661	
3646	2660	
3647	2660	
3648	2660	
3649	2661	
3650	2662	
3651	2662	
3652	2661	
3653	2661	
3654	2662	
3655	2662	
3656	2662	
3657	2662	
3658	2662	
3659	2663	
3660	2662	
3661	2662	
3662	2663	
3663	2663	
3664	2663	
3665	2663	
3666	2663	
3667	2664	
3668	2664	
3669	2664	
3670	2664	
3671	2665	
3672	2665	
3673	2665	
3674	2666	
3675	2665	
3676	2667	
3677	2667	
3678	2667	
3679	2666	
3680	2668	
3681	2668	
3682	2668	
3683	2668	
3684	2668	
3685	2669	
3686	2669	
3687	2669	
3688	2671	
3689	2670	
3690	2670	
3691	2671	
3692	2670	
3693	2671	
3694	2672	
3695	2672	
3696	2672	
3697	2673	
3698	2674	
3699	2673	
3700	2674	
3701	2674	
3702	2675	
3703	2675	
3704	2675	
3705	2675	
3706	2676	
3707	2676	
3708	2677	
3709	2676	
3710	2677	
3711	2678	
3712	2678	
3713	2678	
3714	2678	
3715	2679	
3716	2680	
3717	2679	
3718	2679	
3719	2679	
3720	2680	
3721	2681	
3722	2680	
3723	2681	
3724	2681	
3725	2681	
3726	2681	
3727	2682	
3728	2682	
3729	2683	
3730	2682	
3731	2683	
3732	2682	
3733	2683	
3734	2684	
3735	2684	
3736	2684	
3737	2684	
3738	2684	
3739	2685	
3740	2685	
3741	2685	
3742	2684	
3743	2685	
3744	2685	
3745	2686	
3746	2685	
3747	2686	
3748	2686	
3749	2687	
3750	2687	
3751	2686	
3752	2686	
3753	2687	
3754	2687	
3755	2688	
3756	2687	
3757	2687	
3758	2688	
3759	2688	
3760	2687	
3761	2687	
3762	2688	
3763	2688	
3764	2688	
3765	2688	
3766	2688	
3767	2688	
3768	2688	
3769	2688	
3770	2687	
3771	2687	
3772	2688	
3773	2689	
3774	2689	
3775	2688	
3776	2688	
3777	2688	
3778	2689	
3779	2689	
3780	2689	
3781	2689	
3782	2688	
3783	2689	
3784	2689	
3785	2690	
3786	2688	
3787	2688	
3788	2688	
3789	2688	
3790	2689	
3791	2690	
3792	2690	
3793	2689	
3794	2689	
3795	2688	
3796	2688	
3797	2689	
3798	2689	
3799	2690	
3800	2689	
3801	2689	
3802	2690	
3803	2690	
3804	2688	
3805	2689	
3806	2688	
3807	2689	
3808	2690	
3809	2689	
3810	2689	
3811	2688	
3812	2688	
3813	2688	
3814	2688	
3815	2689	
3816	2688	
3817	2688	
3818	2688	
3819	2687	
3820	2687	
3821	2688	
3822	2688	
3823	2687	
3824	2686	
3825	2686	
3826	2686	
3827	2687	
3828	2687	
3829	2686	
3830	2686	
3831	2685	
3832	2686	
3833	2686	
3834	2686	
3835	2687	
3836	2685	
3837	2685	
3838	2685	
3839	2685	
3840	2686	
3841	2685	
3842	2683	
3843	2684	
3844	2684	
3845	2684	
3846	2683	
3847	2683	
3848	2683	
3849	2684	
3850	2683	
3851	2682	
3852	2682	
3853	2682	
3854	2683	
3855	2683	
3856	2682	
3857	2681	
3858	2681	
3859	2681	
3860	2682	
3861	2681	
3862	2682	
3863	2681	
3864	2679	
3865	2680	
3866	2681	
3867	2681	
3868	2680	
3869	2679	
3870	2679	
3871	2679	
3872	2679	
3873	2679	
3874	2678	
3875	2678	
3876	2678	
3877	2679	
3878	2678	
3879	2678	
3880	2678	
3881	2678	
3882	2677	
3883	2677	
3884	2678	
3885	2678	
3886	2678	
3887	2676	
3888	2676	
3889	2677	
3890	2677	
3891	2677	
3892	2676	
3893	2676	
3894	2676	
3895	2675	
3896	2675	
3897	2676	
3898	2676	
3899	2676	
3900	2674	
3901	2674	
3902	2674	
3903	2674	
3904	2675	
3905	2675	
3906	2675	
3907	2674	
3908	2675	
3909	2674	
3910	2673	
3911	2673	
3912	2672	
3913	2673	
3914	2672	
3915	2673	
3916	2674	
3917	2673	
3918	2673	
3919	2672	
3920	2672	
3921	2672	
3922	2671	
3923	2671	
3924	2672	
3925	2672	
3926	2672	
3927	2671	
3928	2671	
3929	2671	
3930	2671	
3931	2670	
3932	2671	
3933	2671	
3934	2671	
3935	2670	
3936	2669	
3937	2669	
3938	2669	
3939	2670	
3940	2670	
3941	2668	
3942	2669	
3943	2669	
3944	2669	
3945	2669	
3946	2669	
3947	2669	
3948	2669	
3949	2668	
3950	2668	
3951	2669	
3952	2670	
3953	2668	
3954	2668	
3955	2668	
3956	2667	
3957	2668	
3958	2667	
3959	2667	
3960	2668	
3961	2668	
3962	2667	
3963	2667	
3964	2667	
3965	2667	
3966	2668	
3967	2666	
3968	2666	
3969	2666	
3970	2667	
3971	2666	
3972	2667	
3973	2666	
3974	2667	
3975	2667	
3976	2666	
3977	2665	
3978	2667	
3979	2667	
3980	2666	
3981	2666	
3982	2666	
3983	2666	
3984	2666	
3985	2666	
3986	2665	
3987	2665	
3988	2666	
3989	2666	
3990	2665	
3991	2664	
3992	2666	
3993	2666	
3994	2665	
3995	2665	
3996	2665	
3997	2666	
3998	2665	
3999	2665	
4000	2665	
4001	2665	
4002	2665	
4003	2666	
4004	2665	
4005	2664	
4006	2665	
4007	2664	
4008	2666	
4009	2665	
4010	2665	
4011	2665	
4012	2664	
4013	2665	
4014	2665	
4015	2666	
4016	2665	
4017	2664	
4018	2664	
4019	2664	
4020	2665	
4021	2665	
4022	2664	
4023	2664	
4024	2664	
4025	2664	
4026	2664	
4027	2664	
4028	2664	
4029	2664	
4030	2664	
4031	2665	
4032	2664	
4033	2663	
4034	2663	
4035	2664	
4036	2663	
4037	2662	
4038	2663	
4039	2663	
4040	2663	
4041	2662	
4042	2662	
4043	2663	
4044	2662	
4045	2662	
4046	2661	
4047	2661	
4048	2662	
4049	2661	
4050	2661	
4051	2662	
4052	2661	
4053	2661	
4054	2662	
4055	2661	
4056	2661	
4057	2660	
4058	2661	
4059	2661	
4060	2661	
4061	2660	
4062	2660	
4063	2661	
4064	2660	
4065	2660	
4066	2659	
4067	2660	
4068	2660	
4069	2660	
4070	2659	
4071	2658	
4072	2659	
4073	2659	
4074	2659	
4075	2659	
4076	2659	
4077	2659	
4078	2658	
4079	2658	
4080	2658	
4081	2657	
4082	2658	
4083	2658	
4084	2657	
4085	2656	
4086	2657	
4087	2658	
4088	2658	
4089	2656	
4090	2656	
4091	2656	
4092	2657	
4093	2656	
4094	2655	
4095	2655	
4096	2655	
4097	2656	
4098	2655	
4099	2654	
4100	2655	
4101	2655	
4102	2655	
4103	2654	
4104	2655	
4105	2655	
4106	2655	
4107	2654	
4108	2656	
4109	2655	
4110	2653	
4111	2654	
4112	2655	
4113	2655	
4114	2653	
4115	2654	
4116	2654	
4117	2654	
4118	2653	
4119	2653	
4120	2654	
4121	2654	
4122	2654	
4123	2653	
4124	2653	
4125	2654	
4126	2654	
4127	2654	
4128	2653	
4129	2653	
4130	2653	
4131	2653	
4132	2652	
4133	2653	
4134	2654	
4135	2654	
4136	2653	
4137	2653	
4138	2654	
4139	2653	
4140	2652	
4141	2653	
4142	2653	
4143	2653	
4144	2653	
4145	2654	
4146	2654	
4147	2652	
4148	2653	
4149	2653	
4150	2652	
4151	2653	
4152	2654	
4153	2653	
4154	2653	
4155	2652	
4156	2654	
4157	2653	
4158	2653	
4159	2652	
4160	2653	
4161	2652	
4162	2653	
4163	2653	
4164	2653	
4165	2653	
4166	2653	
4167	2651	
4168	2653	
4169	2652	
4170	2652	
4171	2652	
4172	2653	
4173	2652	
4174	2652	
4175	2653	
4176	2652	
4177	2651	
4178	2653	
4179	2651	
4180	2651	
4181	2652	
4182	2652	
4183	2651	
4184	2652	
4185	2651	
4186	2651	
4187	2651	
4188	2651	
4189	2650	
4190	2650	
4191	2650	
4192	2650	
4193	2650	
4194	2650	
4195	2649	
4196	2649	
4197	2649	
4198	2648	
4199	2650	
4200	2649	
4201	2648	
4202	2649	
4203	2649	
4204	2648	
4205	2648	
4206	2648	
4207	2647	
4208	2648	
4209	2649	
4210	2647	
4211	2647	
4212	2646	
4213	2646	
4214	2647	
4215	2646	
4216	2645	
4217	2645	
4218	2645	
4219	2646	
4220	2645	
4221	2645	
4222	2645	
4223	2644	
4224	2644	
4225	2644	
4226	2643	
4227	2643	
4228	2643	
4229	2643	
4230	2642	
4231	2642	
4232	2643	
4233	2642	
4234	2641	
4235	2641	
4236	2642	
4237	2641	
4238	2640	
4239	2640	
4240	2641	
4241	2639	
4242	2640	
4243	2639	
4244	2638	
4245	2638	
4246	2638	
4247	2638	
4248	2638	
4249	2638	
4250	2637	
4251	2637	
4252	2637	
4253	2637	
4254	2636	
4255	2635	
4256	2635	
4257	2636	
4258	2635	
4259	2635	
4260	2633	
4261	2634	
4262	2634	
4263	2632	
4264	2632	
4265	2632	
4266	2632	
4267	2632	
4268	2631	
4269	2630	
4270	2630	
4271	2630	
4272	2630	
4273	2630	
4274	2629	
4275	2628	
4276	2628	
4277	2629	
4278	2628	
4279	2629	
4280	2628	
4281	2627	
4282	2628	
4283	2627	
4284	2626	
4285	2625	
4286	2625	
4287	2626	
4288	2626	
4289	2625	
4290	2626	
4291	2624	
4292	2624	
4293	2625	
4294	2624	
4295	2624	
4296	2623	
4297	2623	
4298	2623	
4299	2624	
4300	2622	
4301	2622	
4302	2622	
4303	2622	
4304	2622	
4305	2621	
4306	2620	
4307	2620	
4308	2620	
4309	2619	
4310	2619	
4311	2620	
4312	2619	
4313	2619	
4314	2618	
4315	2619	
4316	2619	
4317	2619	
4318	2618	
4319	2618	
4320	2618	
4321	2619	
4322	2617	
4323	2618	
4324	2618	
4325	2618	
4326	2617	
4327	2618	
4328	2618	
4329	2618	
4330	2617	
4331	2616	
4332	2617	
4333	2618	
4334	2617	
4335	2617	
4336	2617	
4337	2616	
4338	2616	
4339	2616	
4340	2616	
4341	2616	
4342	2616	
4343	2615	
4344	2615	
4345	2615	
4346	2614	
4347	2613	
4348	2613	
4349	2613	
4350	2611	
4351	2611	
4352	2611	
4353	2611	
4354	2610	
4355	2609	
4356	2607	
4357	2607	
4358	2606	
4359	2605	
4360	2605	
4361	2603	
4362	2602	
4363	2602	
4364	2601	
4365	2600	
4366	2599	
4367	2598	
4368	2597	
4369	2596	
4370	2595	
4371	2595	
4372	2594	
4373	2593	
4374	2592	
4375	2592	
4376	2591	
4377	2590	
4378	2590	
4379	2589	
4380	2589	
4381	2589	
4382	2588	
4383	2588	
4384	2587	
4385	2587	
4386	2587	
4387	2587	
4388	2586	
4389	2586	
4390	2586	
4391	2587	
4392	2586	
4393	2586	
4394	2587	
4395	2586	
4396	2586	
4397	2588	
4398	2587	
4399	2587	
4400	2587	
4401	2588	
4402	2588	
4403	2588	
4404	2588	
4405	2589	
4406	2589	
4407	2589	
4408	2590	
4409	2589	
4410	2589	
4411	2590	
4412	2590	
4413	2590	
4414	2590	
4415	2590	
4416	2590	
4417	2590	
4418	2590	
4419	2590	
4420	2590	
4421	2591	
4422	2590	
4423	2590	
4424	2590	
4425	2591	
4426	2591	
4427	2590	
4428	2590	
4429	2590	
4430	2590	
4431	2590	
4432	2589	
4433	2590	
4434	2589	
4435	2589	
4436	2589	
4437	2590	
4438	2589	
4439	2588	
4440	2589	
4441	2589	
4442	2588	
4443	2587	
4444	2588	
4445	2588	
4446	2588	
4447	2587	
4448	2587	
4449	2587	
4450	2586	
4451	2587	
4452	2586	
4453	2587	
4454	2586	
4455	2586	
4456	2585	
4457	2585	
4458	2585	
4459	2585	
4460	2585	
4461	2585	
4462	2585	
4463	2585	
4464	2585	
4465	2585	
4466	2585	
4467	2586	
4468	2585	
4469	2585	
4470	2586	
4471	2586	
4472	2586	
4473	2586	
4474	2586	
4475	2586	
4476	2587	
4477	2587	
4478	2587	
4479	2587	
4480	2587	
4481	2587	
4482	2587	
4483	2588	
4484	2588	
4485	2588	
4486	2588	
4487	2589	
4488	2589	
4489	2589	
4490	2589	
4491	2589	
4492	2590	
4493	2590	
4494	2590	
4495	2591	
4496	2592	
4497	2591	
4498	2591	
4499	2592	
4500	2592	
4501	2593	
4502	2593	
4503	2593	
4504	2594	
4505	2594	
4506	2594	
4507	2595	
4508	2595	
4509	2595	
4510	2596	
4511	2596	
4512	2596	
4513	2596	
4514	2596	
4515	2597	
4516	2598	
4517	2598	
4518	2598	
4519	2598	
4520	2599	
4521	2600	
4522	2600	
4523	2600	
4524	2600	
4525	2601	
4526	2601	
4527	2602	
4528	2602	
4529	2603	
4530	2603	
4531	2604	
4532	2603	
4533	2604	
4534	2604	
4535	2605	
4536	2605	
4537	2606	
4538	2606	
4539	2605	
4540	2606	
4541	2607	
4542	2607	
4543	2607	
4544	2608	
4545	2608	
4546	2608	
4547	2609	
4548	2609	
4549	2609	
4550	2610	
4551	2610	
4552	2610	
4553	2610	
4554	2610	
4555	2611	
4556	2611	
4557	2611	
4558	2612	
4559	2612	
4560	2613	
4561	2612	
4562	2613	
4563	2614	
4564	2613	
4565	2613	
4566	2615	
4567	2615	
4568	2614	
4569	2614	
4570	2615	
4571	2615	
4572	2616	
4573	2616	
4574	2615	
4575	2616	
4576	2616	
4577	2617	
4578	2617	
4579	2617	
4580	2617	
4581	2617	
4582	2617	
4583	2618	
4584	2619	
4585	2618	
4586	2618	
4587	2619	
4588	2619	
4589	2619	
4590	2619	
4591	2620	
4592	2619	
4593	2619	
4594	2620	
4595	2619	
4596	2619	
4597	2620	
4598	2619	
4599	2620	
4600	2619	
4601	2620	
4602	2620	
4603	2620	
4604	2620	
4605	2620	
4606	2621	
4607	2620	
4608	2620	
4609	2620	
4610	2620	
4611	2620	
4612	2620	
4613	2620	
4614	2620	
4615	2620	
4616	2620	
4617	2620	
4618	2621	
4619	2620	
4620	2620	
4621	2619	
4622	2620	
4623	2620	
4624	2620	
4625	2620	
4626	2619	
4627	2620	
4628	2620	
4629	2620	
4630	2620	
4631	2619	
4632	2619	
4633	2620	
4634	2620	
4635	2620	
4636	2619	
4637	2620	
4638	2619	
4639	2619	
4640	2620	
4641	2620	
4642	2619	
4643	2619	
4644	2619	
4645	2619	
4646	2619	
4647	2619	
4648	2618	
4649	2617	
4650	2618	
4651	2618	
4652	2618	
4653	2617	
4654	2618	
4655	2616	
4656	2616	
4657	2617	
4658	2617	
4659	2616	
4660	2616	
4661	2616	
4662	2616	
4663	2616	
4664	2616	
4665	2615	
4666	2615	
4667	2614	
4668	2615	
4669	2614	
4670	2614	
4671	2615	
4672	2615	
4673	2614	
4674	2614	
4675	2614	
4676	2614	
4677	2613	
4678	2612	
4679	2613	
4680	2614	
4681	2613	
4682	2613	
4683	2613	
4684	2612	
4685	2613	
4686	2613	
4687	2612	
4688	2612	
4689	2612	
4690	2612	
4691	2612	
4692	2611	
4693	2611	
4694	2612	
4695	2612	
4696	2612	
4697	2611	
4698	2611	
4699	2611	
4700	2611	
4701	2611	
4702	2611	
4703	2610	
4704	2610	
4705	2610	
4706	2611	
4707	2610	
4708	2610	
4709	2609	
4710	2610	
4711	2610	
4712	2610	
4713	2609	
4714	2610	
4715	2609	
4716	2609	
4717	2609	
4718	2609	
4719	2608	
4720	2609	
4721	2609	
4722	2608	
4723	2608	
4724	2608	
4725	2608	
4726	2608	
4727	2608	
4728	2608	
4729	2607	
4730	2607	
4731	2607	
4732	2607	
4733	2607	
4734	2606	
4735	2607	
4736	2606	
4737	2607	
4738	2606	
4739	2606	
4740	2606	
4741	2606	
4742	2606	
4743	2606	
4744	2605	
4745	2604	
4746	2605	
4747	2605	
4748	2605	
4749	2605	
4750	2605	
4751	2603	
4752	2604	
4753	2604	
4754	2604	
4755	2603	
4756	2603	
4757	2604	
4758	2603	
4759	2603	
4760	2602	
4761	2603	
4762	2602	
4763	2602	
4764	2602	
4765	2602	
4766	2602	
4767	2601	
4768	2601	
4769	2601	
4770	2601	
4771	2601	
4772	2600	
4773	2600	
4774	2600	
4775	2600	
4776	2601	
4777	2600	
4778	2600	
4779	2600	
4780	2599	
4781	2599	
4782	2599	
4783	2599	
4784	2599	
4785	2598	
4786	2598	
4787	2598	
4788	2598	
4789	2598	
4790	2598	
4791	2597	
4792	2598	
4793	2598	
4794	2597	
4795	2598	
4796	2598	
4797	2598	
4798	2597	
4799	2597	
4800	2597	
4801	2597	
4802	2597	
4803	2598	
4804	2597	
4805	2597	
4806	2597	
4807	2597	
4808	2597	
4809	2598	
4810	2597	
4811	2597	
4812	2597	
4813	2597	
4814	2597	
4815	2597	
4816	2596	
4817	2597	
4818	2597	
4819	2597	
4820	2596	
4821	2597	
4822	2597	
4823	2597	
4824	2597	
4825	2598	
4826	2597	
4827	2598	
4828	2597	
4829	2597	
4830	2597	
4831	2597	
4832	2598	
4833	2598	
4834	2597	
4835	2597	
4836	2598	
4837	2597	
4838	2597	
4839	2598	
4840	2598	
4841	2597	
4842	2598	
4843	2598	
4844	2597	
4845	2597	
4846	2597	
4847	2598	
4848	2597	
4849	2597	
4850	2596	
4851	2597	
4852	2597	
4853	2597	
4854	2597	
4855	2597	
4856	2597	
4857	2598	
4858	2597	
4859	2596	
4860	2597	
4861	2597	
4862	2596	
4863	2596	
4864	2597	
4865	2597	
4866	2596	
4867	2597	
4868	2596	
4869	2596	
4870	2596	
4871	2596	
4872	2596	
4873	2595	
4874	2596	
4875	2595	
4876	2595	
4877	2595	
4878	2595	
4879	2595	
4880	2595	
4881	2595	
4882	2594	
4883	2594	
4884	2594	
4885	2594	
4886	2594	
4887	2593	
4888	2594	
4889	2594	
4890	2593	
4891	2593	
4892	2593	
4893	2593	
4894	2593	
4895	2594	
4896	2594	
4897	2593	
4898	2592	
4899	2593	
4900	2593	
4901	2592	
4902	2592	
4903	2592	
4904	2592	
4905	2592	
4906	2592	
4907	2592	
4908	2592	
4909	2592	
4910	2592	
4911	2592	
4912	2592	
4913	2592	
4914	2592	
4915	2592	
4916	2592	
4917	2592	
4918	2592	
4919	2591	
4920	2592	
4921	2591	
4922	2592	
4923	2592	
4924	2591	
4925	2592	
4926	2592	
4927	2592	
4928	2591	
4929	2591	
4930	2591	
4931	2591	
4932	2591	
4933	2591	
4934	2590	
4935	2591	
4936	2591	
4937	2591	
4938	2590	
4939	2590	
4940	2590	
4941	2591	
4942	2591	
4943	2590	
4944	2590	
4945	2590	
4946	2590	
4947	2591	
4948	2591	
4949	2591	
4950	2591	
4951	2590	
4952	2591	
4953	2590	
4954	2590	
4955	2590	
4956	2591	
4957	2590	
4958	2591	
4959	2590	
4960	2591	
4961	2590	
4962	2590	
4963	2589	
4964	2590	
4965	2590	
4966	2590	
4967	2590	
4968	2590	
4969	2590	
4970	2590	
4971	2589	
4972	2589	
4973	2590	
4974	2590	
4975	2590	
4976	2589	
4977	2589	
4978	2589	
4979	2588	
4980	2589	
4981	2589	
4982	2589	
4983	2589	
4984	2589	
4985	2589	
4986	2589	
4987	2588	
4988	2588	
4989	2588	
4990	2588	
4991	2588	
4992	2587	
4993	2588	
4994	2588	
4995	2587	
4996	2587	
4997	2587	
4998	2587	
4999	2587	
5000	2586	
5001	2588	
5002	2587	
5003	2586	
5004	2586	
5005	2586	
5006	2586	
5007	2586	
5008	2586	
5009	2586	
5010	2585	
5011	2585	
5012	2584	
5013	2584	
5014	2585	
5015	2584	
5016	2584	
5017	2584	
5018	2584	
5019	2584	
5020	2583	
5021	2583	
5022	2583	
5023	2583	
5024	2583	
5025	2582	
5026	2582	
5027	2582	
5028	2582	
5029	2583	
5030	2582	
5031	2581	
5032	2582	
5033	2581	
5034	2580	
5035	2581	
5036	2581	
5037	2581	
5038	2580	
5039	2580	
5040	2580	
5041	2580	
5042	2579	
5043	2580	
5044	2578	
5045	2580	
5046	2579	
5047	2579	
5048	2578	
5049	2578	
5050	2578	
5051	2579	
5052	2577	
5053	2577	
5054	2576	
5055	2576	
5056	2576	
5057	2576	
5058	2576	
5059	2575	
5060	2575	
5061	2575	
5062	2575	
5063	2574	
5064	2574	
5065	2573	
5066	2574	
5067	2573	
5068	2573	
5069	2572	
5070	2572	
5071	2571	
5072	2570	
5073	2570	
5074	2570	
5075	2570	
5076	2569	
5077	2569	
5078	2568	
5079	2569	
5080	2567	
5081	2567	
5082	2566	
5083	2567	
5084	2566	
5085	2566	
5086	2565	
5087	2565	
5088	2564	
5089	2564	
5090	2564	
5091	2563	
5092	2563	
5093	2563	
5094	2562	
5095	2561	
5096	2562	
5097	2560	
5098	2560	
5099	2560	
5100	2559	
5101	2559	
5102	2558	
5103	2558	
5104	2558	
5105	2557	
5106	2557	
5107	2556	
5108	2556	
5109	2555	
5110	2554	
5111	2553	
5112	2553	
5113	2552	
5114	2551	
5115	2551	
5116	2550	
5117	2550	
5118	2549	
5119	2548	
5120	2547	
5121	2547	
5122	2546	
5123	2546	
5124	2546	
5125	2545	
5126	2544	
5127	2544	
5128	2542	
5129	2544	
5130	2542	
5131	2542	
5132	2541	
5133	2541	
5134	2540	
5135	2540	
5136	2539	
5137	2538	
5138	2537	
5139	2536	
5140	2535	
5141	2534	
5142	2535	
5143	2533	
5144	2533	
5145	2531	
5146	2531	
5147	2530	
5148	2529	
5149	2527	
5150	2527	
5151	2526	
5152	2525	
5153	2523	
5154	2521	
5155	2520	
5156	2520	
5157	2518	
5158	2516	
5159	2514	
5160	2513	
5161	2512	
5162	2510	
5163	2508	
5164	2505	
5165	2503	
5166	2502	
5167	2500	
5168	2498	
5169	2496	
5170	2493	
5171	2492	
5172	2490	
5173	2488	
5174	2486	
5175	2483	
5176	2480	
5177	2478	
5178	2476	
5179	2474	
5180	2471	
5181	2468	
5182	2466	
5183	2464	
5184	2462	
5185	2459	
5186	2457	
5187	2455	
5188	2453	
5189	2451	
5190	2449	
5191	2446	
5192	2444	
5193	2441	
5194	2439	
5195	2437	
5196	2435	
5197	2433	
5198	2431	
5199	2428	
5200	2427	
5201	2425	
5202	2423	
5203	2420	
5204	2418	
5205	2415	
5206	2414	
5207	2413	
5208	2409	
5209	2408	
5210	2405	
5211	2404	
5212	2402	
5213	2400	
5214	2397	
5215	2395	
5216	2393	
5217	2392	
5218	2389	
5219	2387	
5220	2384	
5221	2382	
5222	2380	
5223	2379	
5224	2377	
5225	2374	
5226	2372	
5227	2369	
5228	2366	
5229	2365	
5230	2363	
5231	2361	
5232	2359	
5233	2356	
5234	2353	
5235	2350	
5236	2348	
5237	2346	
5238	2344	
5239	2341	
5240	2337	
5241	2334	
5242	2332	
5243	2329	
5244	2328	
5245	2325	
5246	2322	
5247	2318	
5248	2315	
5249	2312	
5250	2310	
5251	2308	
5252	2304	
5253	2302	
5254	2298	
5255	2295	
5256	2292	
5257	2289	
5258	2286	
5259	2284	
5260	2280	
5261	2277	
5262	2275	
5263	2271	
5264	2267	
5265	2264	
5266	2261	
5267	2258	
5268	2256	
5269	2252	
5270	2248	
5271	2245	
5272	2243	
5273	2240	
5274	2235	
5275	2233	
5276	2230	
5277	2226	
5278	2223	
5279	2221	
5280	2216	
5281	2213	
5282	2210	
5283	2207	
5284	2205	
5285	2201	
5286	2198	
5287	2194	
5288	2190	
5289	2188	
5290	2185	
5291	2182	
5292	2179	
5293	2175	
5294	2172	
5295	2168	
5296	2165	
5297	2162	
5298	2158	
5299	2154	
5300	2152	
5301	2149	
5302	2146	
5303	2143	
5304	2138	
5305	2135	
5306	2132	
5307	2128	
5308	2126	
5309	2123	
5310	2120	
5311	2117	
5312	2113	
5313	2108	
5314	2105	
5315	2103	
5316	2100	
5317	2097	
5318	2093	
5319	2089	
5320	2085	
5321	2083	
5322	2080	
5323	2077	
5324	2072	
5325	2068	
5326	2065	
5327	2062	
5328	2059	
5329	2055	
5330	2051	
5331	2048	
5332	2045	
5333	2042	
5334	2038	
5335	2034	
5336	2030	
5337	2027	
5338	2023	
5339	2019	
5340	2016	
5341	2014	
5342	2010	
5343	2006	
5344	2001	
5345	1998	
5346	1995	
5347	1992	
5348	1988	
5349	1984	
5350	1980	
5351	1977	
5352	1973	
5353	1969	
5354	1965	
5355	1961	
5356	1958	
5357	1955	
5358	1951	
5359	1948	
5360	1943	
5361	1939	
5362	1935	
5363	1932	
5364	1929	
5365	1925	
5366	1921	
5367	1917	
5368	1914	
5369	1911	
5370	1906	
5371	1903	
5372	1898	
5373	1896	
5374	1893	
5375	1889	
5376	1886	
5377	1881	
5378	1876	
5379	1873	
5380	1870	
5381	1867	
5382	1864	
5383	1860	
5384	1856	
5385	1852	
5386	1848	
5387	1845	
5388	1842	
5389	1839	
5390	1835	
5391	1831	
5392	1827	
5393	1823	
5394	1821	
5395	1818	
5396	1814	
5397	1810	
5398	1806	
5399	1802	
5400	1800	
5401	1796	
5402	1793	
5403	1789	
5404	1785	
5405	1781	
5406	1779	
5407	1776	
5408	1772	
5409	1768	
5410	1764	
5411	1762	
5412	1759	
5413	1755	
5414	1751	
5415	1747	
5416	1745	
5417	1742	
5418	1739	
5419	1734	
5420	1731	
5421	1728	
5422	1726	
5423	1722	
5424	1718	
5425	1715	
5426	1711	
5427	1709	
5428	1706	
5429	1703	
5430	1699	
5431	1695	
5432	1692	
5433	1690	
5434	1687	
5435	1684	
5436	1680	
5437	1676	
5438	1673	
5439	1671	
5440	1668	
5441	1665	
5442	1660	
5443	1658	
5444	1656	
5445	1652	
5446	1648	
5447	1645	
5448	1643	
5449	1640	
5450	1635	
5451	1633	
5452	1631	
5453	1627	
5454	1623	
5455	1622	
5456	1618	
5457	1614	
5458	1611	
5459	1609	
5460	1606	
5461	1601	
5462	1598	
5463	1595	
5464	1593	
5465	1590	
5466	1587	
5467	1583	
5468	1579	
5469	1577	
5470	1575	
5471	1572	
5472	1567	
5473	1565	
5474	1563	
5475	1560	
5476	1557	
5477	1553	
5478	1550	
5479	1547	
5480	1545	
5481	1542	
5482	1538	
5483	1535	
5484	1532	
5485	1529	
5486	1526	
5487	1523	
5488	1518	
5489	1516	
5490	1513	
5491	1511	
5492	1508	
5493	1505	
5494	1501	
5495	1498	
5496	1495	
5497	1492	
5498	1490	
5499	1487	
5500	1484	
5501	1480	
5502	1477	
5503	1474	
5504	1472	
5505	1470	
5506	1467	
5507	1463	
5508	1460	
5509	1457	
5510	1453	
5511	1451	
5512	1449	
5513	1446	
5514	1443	
5515	1439	
5516	1436	
5517	1434	
5518	1432	
5519	1429	
5520	1426	
5521	1422	
5522	1419	
5523	1416	
5524	1414	
5525	1412	
5526	1409	
5527	1405	
5528	1402	
5529	1400	
5530	1398	
5531	1395	
5532	1391	
5533	1389	
5534	1387	
5535	1385	
5536	1381	
5537	1378	
5538	1376	
5539	1374	
5540	1371	
5541	1367	
5542	1364	
5543	1362	
5544	1360	
5545	1358	
5546	1355	
5547	1351	
5548	1349	
5549	1347	
5550	1345	
5551	1341	
5552	1338	
5553	1336	
5554	1335	
5555	1332	
5556	1330	
5557	1326	
5558	1323	
5559	1321	
5560	1320	
5561	1317	
5562	1314	
5563	1311	
5564	1309	
5565	1307	
5566	1305	
5567	1302	
5568	1298	
5569	1297	
5570	1295	
5571	1292	
5572	1289	
5573	1286	
5574	1285	
5575	1283	
5576	1280	
5577	1278	
5578	1274	
5579	1272	
5580	1270	
5581	1269	
5582	1266	
5583	1263	
5584	1260	
5585	1258	
5586	1256	
5587	1254	
5588	1252	
5589	1249	
5590	1246	
5591	1244	
5592	1241	
5593	1240	
5594	1238	
5595	1236	
5596	1233	
5597	1230	
5598	1227	
5599	1226	
5600	1223	
5601	1222	
5602	1220	
5603	1218	
5604	1215	
5605	1213	
5606	1210	
5607	1207	
5608	1206	
5609	1204	
5610	1202	
5611	1200	
5612	1197	
5613	1195	
5614	1194	
5615	1192	
5616	1190	
5617	1188	
5618	1184	
5619	1182	
5620	1181	
5621	1180	
5622	1177	
5623	1174	
5624	1172	
5625	1170	
5626	1169	
5627	1167	
5628	1165	
5629	1162	
5630	1160	
5631	1159	
5632	1157	
5633	1155	
5634	1152	
5635	1150	
5636	1149	
5637	1147	
5638	1145	
5639	1142	
5640	1140	
5641	1139	
5642	1137	
5643	1136	
5644	1133	
5645	1130	
5646	1129	
5647	1127	
5648	1126	
5649	1124	
5650	1121	
5651	1118	
5652	1117	
5653	1116	
5654	1113	
5655	1111	
5656	1110	
5657	1109	
5658	1106	
5659	1104	
5660	1101	
5661	1100	
5662	1099	
5663	1096	
5664	1094	
5665	1091	
5666	1091	
5667	1089	
5668	1086	
5669	1084	
5670	1082	
5671	1081	
5672	1079	
5673	1077	
5674	1074	
5675	1072	
5676	1070	
5677	1069	
5678	1068	
5679	1066	
5680	1063	
5681	1061	
5682	1059	
5683	1057	
5684	1055	
5685	1053	
5686	1052	
5687	1051	
5688	1049	
5689	1046	
5690	1044	
5691	1043	
5692	1041	
5693	1040	
5694	1038	
5695	1035	
5696	1033	
5697	1031	
5698	1029	
5699	1027	
5700	1027	
5701	1025	
5702	1022	
5703	1020	
5704	1018	
5705	1017	
5706	1015	
5707	1014	
5708	1013	
5709	1010	
5710	1010	
5711	1007	
5712	1005	
5713	1004	
5714	1001	
5715	999	
5716	998	
5717	996	
5718	995	
5719	993	
5720	991	
5721	990	
5722	988	
5723	987	
5724	986	
5725	984	
5726	982	
5727	980	
5728	979	
5729	977	
5730	975	
5731	974	
5732	972	
5733	970	
5734	969	
5735	968	
5736	966	
5737	965	
5738	963	
5739	962	
5740	961	
5741	959	
5742	958	
5743	956	
5744	954	
5745	953	
5746	951	
5747	949	
5748	948	
5749	946	
5750	946	
5751	945	
5752	943	
5753	941	
5754	939	
5755	937	
5756	936	
5757	936	
5758	935	
5759	932	
5760	930	
5761	929	
5762	928	
5763	927	
5764	925	
5765	923	
5766	922	
5767	921	
5768	920	
5769	918	
5770	916	
5771	914	
5772	912	
5773	911	
5774	911	
5775	909	
5776	907	
5777	905	
5778	903	
5779	903	
5780	902	
5781	900	
5782	898	
5783	896	
5784	896	
5785	894	
5786	892	
5787	891	
5788	890	
5789	889	
5790	886	
5791	884	
5792	883	
5793	882	
5794	881	
5795	880	
5796	878	
5797	876	
5798	875	
5799	874	
5800	873	
5801	871	
5802	869	
5803	867	
5804	866	
5805	865	
5806	864	
5807	863	
5808	861	
5809	860	
5810	858	
5811	856	
5812	855	
5813	855	
5814	854	
5815	851	
5816	849	
5817	848	
5818	846	
5819	846	
5820	844	
5821	844	
5822	842	
5823	840	
5824	838	
5825	837	
5826	836	
5827	835	
5828	834	
5829	832	
5830	830	
5831	829	
5832	829	
5833	827	
5834	825	
5835	823	
5836	822	
5837	821	
5838	820	
5839	819	
5840	817	
5841	816	
5842	814	
5843	813	
5844	813	
5845	811	
5846	809	
5847	808	
5848	806	
5849	805	
5850	803	
5851	802	
5852	801	
5853	800	
5854	800	
5855	798	
5856	797	
5857	795	
5858	793	
5859	791	
5860	790	
5861	790	
5862	789	
5863	788	
5864	786	
5865	785	
5866	784	
5867	782	
5868	780	
5869	780	
5870	779	
5871	778	
5872	777	
5873	776	
5874	775	
5875	773	
5876	772	
5877	771	
5878	770	
5879	770	
5880	769	
5881	767	
5882	765	
5883	764	
5884	764	
5885	763	
5886	762	
5887	761	
5888	759	
5889	758	
5890	757	
5891	756	
5892	756	
5893	755	
5894	754	
5895	752	
5896	751	
5897	750	
5898	749	
5899	749	
5900	748	
5901	747	
5902	746	
5903	744	
5904	743	
5905	742	
5906	741	
5907	740	
5908	739	
5909	738	
5910	738	
5911	737	
5912	736	
5913	735	
5914	734	
5915	732	
5916	732	
5917	731	
5918	731	
5919	730	
5920	730	
5921	729	
5922	728	
5923	727	
5924	725	
5925	724	
5926	723	
5927	722	
5928	722	
5929	722	
5930	720	
5931	719	
5932	718	
5933	716	
5934	716	
5935	716	
5936	714	
5937	713	
5938	712	
5939	712	
5940	711	
5941	710	
5942	707	
5943	706	
5944	705	
5945	704	
5946	704	
5947	703	
5948	701	
5949	700	
5950	698	
5951	697	
5952	696	
5953	696	
5954	694	
5955	692	
5956	691	
5957	690	
5958	690	
5959	688	
5960	686	
5961	686	
5962	685	
5963	685	
5964	683	
5965	681	
5966	680	
5967	680	
5968	680	
5969	678	
5970	679	
5971	677	
5972	677	
5973	677	
5974	675	
5975	675	
5976	675	
5977	674	
5978	674	
5979	674	
5980	673	
5981	674	
5982	673	
5983	673	
5984	673	
5985	673	
5986	674	
5987	673	
5988	674	
5989	673	
5990	674	
5991	674	
5992	674	
5993	675	
5994	674	
5995	676	
5996	675	
5997	676	
5998	676	
5999	676	
6000	676	
6001	677	
6002	678	
6003	678	
6004	678	
6005	677	
6006	677	
6007	677	
6008	678	
6009	678	
6010	678	
6011	678	
6012	677	
6013	677	
6014	678	
6015	678	
6016	678	
6017	677	
6018	677	
6019	676	
6020	676	
6021	675	
6022	676	
6023	676	
6024	675	
6025	674	
6026	673	
6027	672	
6028	672	
6029	672	
6030	671	
6031	671	
6032	670	
6033	669	
6034	668	
6035	667	
6036	666	
6037	666	
6038	666	
6039	665	
6040	664	
6041	662	
6042	661	
6043	660	
6044	659	
6045	658	
6046	658	
6047	658	
6048	656	
6049	655	
6050	654	
6051	653	
6052	652	
6053	652	
6054	650	
6055	649	
6056	648	
6057	647	
6058	647	
6059	646	
6060	645	
6061	644	
6062	643	
6063	641	
6064	641	
6065	640	
6066	640	
6067	639	
6068	638	
6069	637	
6070	635	
6071	634	
6072	634	
6073	633	
6074	632	
6075	632	
6076	631	
6077	630	
6078	630	
6079	630	
6080	629	
6081	628	
6082	627	
6083	626	
6084	625	
6085	624	
6086	624	
6087	624	
6088	624	
6089	623	
6090	622	
6091	621	
6092	620	
6093	620	
6094	620	
6095	620	
6096	619	
6097	618	
6098	617	
6099	616	
6100	616	
6101	616	
6102	616	
6103	616	
6104	615	
6105	615	
6106	614	
6107	614	
6108	613	
6109	613	
6110	612	
6111	612	
6112	612	
6113	611	
6114	610	
6115	609	
6116	609	
6117	609	
6118	609	
6119	609	
6120	609	
6121	608	
6122	608	
6123	607	
6124	606	
6125	606	
6126	606	
6127	606	
6128	606	
6129	606	
6130	605	
6131	605	
6132	605	
6133	604	
6134	604	
6135	603	
6136	603	
6137	602	
6138	602	
6139	601	
6140	601	
6141	601	
6142	601	
6143	601	
6144	601	
6145	601	
6146	600	
6147	600	
6148	599	
6149	599	
6150	600	
6151	600	
6152	599	
6153	599	
6154	598	
6155	598	
6156	598	
6157	599	
6158	599	
6159	599	
6160	598	
6161	597	
6162	597	
6163	597	
6164	596	
6165	596	
6166	597	
6167	596	
6168	597	
6169	597	
6170	597	
6171	597	
6172	596	
6173	596	
6174	595	
6175	595	
6176	596	
6177	596	
6178	595	
6179	594	
6180	594	
6181	595	
6182	594	
6183	594	
6184	593	
6185	593	
6186	593	
6187	594	
6188	594	
6189	593	
6190	592	
6191	592	
6192	593	
6193	593	
6194	592	
6195	592	
6196	591	
6197	591	
6198	592	
6199	592	
6200	592	
6201	592	
6202	592	
6203	591	
6204	591	
6205	591	
6206	592	
6207	593	
6208	593	
6209	592	
6210	592	
6211	592	
6212	593	
6213	594	
6214	594	
6215	594	
6216	594	
6217	594	
6218	594	
6219	594	
6220	595	
6221	596	
6222	596	
6223	596	
6224	597	
6225	596	
6226	597	
6227	597	
6228	598	
6229	599	
6230	599	
6231	600	
6232	600	
6233	600	
6234	600	
6235	601	
6236	602	
6237	602	
6238	602	
6239	602	
6240	603	
6241	603	
6242	604	
6243	604	
6244	605	
6245	605	
6246	604	
6247	605	
6248	605	
6249	605	
6250	606	
6251	606	
6252	607	
6253	607	
6254	607	
6255	608	
6256	608	
6257	608	
6258	608	
6259	608	
6260	608	
6261	609	
6262	609	
6263	609	
6264	610	
6265	610	
6266	610	
6267	610	
6268	610	
6269	610	
6270	610	
6271	610	
6272	610	
6273	610	
6274	610	
6275	611	
6276	611	
6277	612	
6278	612	
6279	612	
6280	612	
6281	612	
6282	611	
6283	611	
6284	611	
6285	612	
6286	612	
6287	613	
6288	613	
6289	613	
6290	613	
6291	613	
6292	613	
6293	613	
6294	613	
6295	613	
6296	614	
6297	615	
6298	615	
6299	615	
6300	615	
6301	614	
6302	614	
6303	615	
6304	616	
6305	616	
6306	615	
6307	615	
6308	616	
6309	617	
6310	617	
6311	617	
6312	617	
6313	617	
6314	617	
6315	619	
6316	619	
6317	619	
6318	619	
6319	619	
6320	620	
6321	621	
6322	621	
6323	622	
6324	622	
6325	622	
6326	622	
6327	623	
6328	623	
6329	624	
6330	625	
6331	626	
6332	626	
6333	626	
6334	626	
6335	627	
6336	629	
6337	630	
6338	630	
6339	630	
6340	630	
6341	631	
6342	632	
6343	633	
6344	634	
6345	635	
6346	635	
6347	635	
6348	637	
6349	638	
6350	639	
6351	640	
6352	640	
6353	641	
6354	641	
6355	642	
6356	643	
6357	645	
6358	646	
6359	646	
6360	647	
6361	647	
6362	648	
6363	649	
6364	651	
6365	652	
6366	653	
6367	654	
6368	654	
6369	656	
6370	656	
6371	656	
6372	657	
6373	658	
6374	659	
6375	661	
6376	661	
6377	662	
6378	664	
6379	665	
6380	666	
6381	667	
6382	668	
6383	668	
6384	669	
6385	670	
6386	671	
6387	672	
6388	673	
6389	674	
6390	674	
6391	676	
6392	676	
6393	677	
6394	678	
6395	678	
6396	679	
6397	680	
6398	681	
6399	682	
6400	683	
6401	684	
6402	685	
6403	686	
6404	687	
6405	688	
6406	688	
6407	689	
6408	690	
6409	691	
6410	691	
6411	692	
6412	692	
6413	693	
6414	694	
6415	695	
6416	696	
6417	697	
6418	698	
6419	699	
6420	700	
6421	701	
6422	701	
6423	702	
6424	702	
6425	702	
6426	703	
6427	704	
6428	706	
6429	706	
6430	707	
6431	708	
6432	708	
6433	709	
6434	709	
6435	709	
6436	711	
6437	712	
6438	713	
6439	713	
6440	714	
6441	714	
6442	714	
6443	715	
6444	716	
6445	718	
6446	718	
6447	719	
6448	720	
6449	720	
6450	721	
6451	721	
6452	722	
6453	722	
6454	723	
6455	724	
6456	726	
6457	726	
6458	728	
6459	728	
6460	729	
6461	729	
6462	730	
6463	730	
6464	731	
6465	732	
6466	734	
6467	735	
6468	735	
6469	736	
6470	736	
6471	738	
6472	739	
6473	740	
6474	740	
6475	741	
6476	742	
6477	742	
6478	743	
6479	745	
6480	746	
6481	746	
6482	747	
6483	747	
6484	749	
6485	751	
6486	751	
6487	751	
6488	752	
6489	754	
6490	755	
6491	756	
6492	757	
6493	757	
6494	757	
6495	758	
6496	759	
6497	760	
6498	762	
6499	763	
6500	764	
6501	764	
6502	765	
6503	766	
6504	766	
6505	767	
6506	767	
6507	768	
6508	770	
6509	771	
6510	772	
6511	773	
6512	773	
6513	774	
6514	775	
6515	777	
6516	777	
6517	777	
6518	778	
6519	779	
6520	781	
6521	782	
6522	782	
6523	783	
6524	784	
6525	784	
6526	784	
6527	786	
6528	788	
6529	788	
6530	789	
6531	789	
6532	790	
6533	791	
6534	793	
6535	793	
6536	793	
6537	794	
6538	795	
6539	797	
6540	797	
6541	799	
6542	799	
6543	800	
6544	800	
6545	801	
6546	801	
6547	802	
6548	803	
6549	804	
6550	805	
6551	807	
6552	808	
6553	809	
6554	809	
6555	810	
6556	810	
6557	811	
6558	812	
6559	812	
6560	814	
6561	815	
6562	816	
6563	817	
6564	818	
6565	819	
6566	820	
6567	820	
6568	821	
6569	822	
6570	822	
6571	823	
6572	824	
6573	825	
6574	826	
6575	828	
6576	829	
6577	830	
6578	831	
6579	832	
6580	832	
6581	833	
6582	833	
6583	834	
6584	835	
6585	836	
6586	837	
6587	839	
6588	840	
6589	841	
6590	842	
6591	843	
6592	843	
6593	844	
6594	845	
6595	846	
6596	847	
6597	848	
6598	849	
6599	851	
6600	852	
6601	853	
6602	854	
6603	854	
6604	856	
6605	856	
6606	857	
6607	858	
6608	859	
6609	860	
6610	861	
6611	862	
6612	863	
6613	865	
6614	866	
6615	867	
6616	868	
6617	869	
6618	870	
6619	870	
6620	871	
6621	872	
6622	873	
6623	873	
6624	874	
6625	875	
6626	877	
6627	878	
6628	879	
6629	881	
6630	882	
6631	883	
6632	885	
6633	886	
6634	887	
6635	888	
6636	889	
6637	890	
6638	891	
6639	893	
6640	895	
6641	897	
6642	898	
6643	900	
6644	901	
6645	902	
6646	902	
6647	904	
6648	906	
6649	907	
6650	909	
6651	910	
6652	912	
6653	912	
6654	913	
6655	915	
6656	915	
6657	918	
6658	919	
6659	920	
6660	921	
6661	923	
6662	923	
6663	924	
6664	925	
6665	926	
6666	927	
6667	929	
6668	931	
6669	932	
6670	933	
6671	933	
6672	934	
6673	935	
6674	936	
6675	938	
6676	938	
6677	939	
6678	941	
6679	942	
6680	944	
6681	945	
6682	946	
6683	948	
6684	948	
6685	950	
6686	950	
6687	952	
6688	953	
6689	955	
6690	957	
6691	958	
6692	959	
6693	960	
6694	962	
6695	965	
6696	966	
6697	968	
6698	969	
6699	971	
6700	973	
6701	975	
6702	978	
6703	980	
6704	982	
6705	984	
6706	986	
6707	988	
6708	990	
6709	993	
6710	996	
6711	998	
6712	1001	
6713	1003	
6714	1005	
6715	1007	
6716	1010	
6717	1013	
6718	1016	
6719	1019	
6720	1022	
6721	1024	
6722	1026	
6723	1028	
6724	1032	
6725	1035	
6726	1037	
6727	1039	
6728	1042	
6729	1044	
6730	1047	
6731	1049	
6732	1052	
6733	1055	
6734	1058	
6735	1060	
6736	1062	
6737	1064	
6738	1066	
6739	1068	
6740	1070	
6741	1072	
6742	1074	
6743	1076	
6744	1079	
6745	1081	
6746	1084	
6747	1085	
6748	1086	
6749	1088	
6750	1089	
6751	1092	
6752	1094	
6753	1096	
6754	1098	
6755	1099	
6756	1100	
6757	1102	
6758	1103	
6759	1105	
6760	1107	
6761	1109	
6762	1111	
6763	1111	
6764	1112	
6765	1114	
6766	1114	
6767	1116	
6768	1119	
6769	1120	
6770	1121	
6771	1122	
6772	1123	
6773	1125	
6774	1126	
6775	1128	
6776	1128	
6777	1129	
6778	1130	
6779	1132	
6780	1134	
6781	1135	
6782	1135	
6783	1137	
6784	1138	
6785	1140	
6786	1142	
6787	1143	
6788	1143	
6789	1144	
6790	1145	
6791	1147	
6792	1149	
6793	1151	
6794	1151	
6795	1152	
6796	1153	
6797	1154	
6798	1155	
6799	1157	
6800	1160	
6801	1161	
6802	1161	
6803	1162	
6804	1164	
6805	1165	
6806	1168	
6807	1169	
6808	1170	
6809	1170	
6810	1172	
6811	1174	
6812	1176	
6813	1178	
6814	1179	
6815	1180	
6816	1181	
6817	1183	
6818	1185	
6819	1186	
6820	1188	
6821	1190	
6822	1192	
6823	1193	
6824	1195	
6825	1196	
6826	1198	
6827	1200	
6828	1202	
6829	1204	
6830	1205	
6831	1206	
6832	1208	
6833	1210	
6834	1212	
6835	1214	
6836	1216	
6837	1217	
6838	1219	
6839	1220	
6840	1223	
6841	1225	
6842	1227	
6843	1228	
6844	1230	
6845	1232	
6846	1235	
6847	1236	
6848	1237	
6849	1239	
6850	1241	
6851	1243	
6852	1246	
6853	1247	
6854	1249	
6855	1250	
6856	1252	
6857	1255	
6858	1258	
6859	1259	
6860	1261	
6861	1262	
6862	1266	
6863	1268	
6864	1269	
6865	1271	
6866	1273	
6867	1276	
6868	1279	
6869	1280	
6870	1281	
6871	1284	
6872	1286	
6873	1289	
6874	1292	
6875	1293	
6876	1295	
6877	1296	
6878	1301	
6879	1303	
6880	1305	
6881	1306	
6882	1308	
6883	1311	
6884	1314	
6885	1317	
6886	1319	
6887	1320	
6888	1322	
6889	1325	
6890	1328	
6891	1331	
6892	1332	
6893	1334	
6894	1337	
6895	1340	
6896	1342	
6897	1344	
6898	1346	
6899	1348	
6900	1349	
6901	1353	
6902	1356	
6903	1357	
6904	1359	
6905	1361	
6906	1365	
6907	1367	
6908	1368	
6909	1370	
6910	1373	
6911	1376	
6912	1378	
6913	1379	
6914	1381	
6915	1385	
6916	1387	
6917	1389	
6918	1390	
6919	1393	
6920	1396	
6921	1399	
6922	1402	
6923	1404	
6924	1405	
6925	1407	
6926	1410	
6927	1413	
6928	1416	
6929	1419	
6930	1421	
6931	1424	
6932	1426	
6933	1429	
6934	1433	
6935	1435	
6936	1437	
6937	1440	
6938	1443	
6939	1447	
6940	1450	
6941	1452	
6942	1455	
6943	1457	
6944	1460	
6945	1464	
6946	1468	
6947	1471	
6948	1472	
6949	1476	
6950	1479	
6951	1482	
6952	1487	
6953	1490	
6954	1493	
6955	1495	
6956	1498	
6957	1500	
6958	1505	
6959	1508	
6960	1512	
6961	1514	
6962	1517	
6963	1520	
6964	1523	
6965	1527	
6966	1531	
6967	1534	
6968	1536	
6969	1539	
6970	1543	
6971	1546	
6972	1550	
6973	1553	
6974	1555	
6975	1558	
6976	1562	
6977	1566	
6978	1569	
6979	1571	
6980	1575	
6981	1578	
6982	1582	
6983	1585	
6984	1589	
6985	1590	
6986	1594	
6987	1598	
6988	1601	
6989	1605	
6990	1609	
6991	1611	
6992	1614	
6993	1617	
6994	1620	
6995	1624	
6996	1628	
6997	1632	
6998	1634	
6999	1637	
7000	1640	
7001	1643	
7002	1647	
7003	1651	
7004	1654	
7005	1657	
7006	1660	
7007	1662	
7008	1666	
7009	1669	
7010	1674	
7011	1677	
7012	1680	
7013	1682	
7014	1686	
7015	1690	
7016	1693	
7017	1696	
7018	1699	
7019	1701	
7020	1705	
7021	1708	
7022	1713	
7023	1716	
7024	1720	
7025	1721	
7026	1724	
7027	1729	
7028	1733	
7029	1737	
7030	1739	
7031	1742	
7032	1745	
7033	1748	
7034	1752	
7035	1756	
7036	1760	
7037	1763	
7038	1767	
7039	1769	
7040	1772	
7041	1777	
7042	1780	
7043	1784	
7044	1786	
7045	1789	
7046	1793	
7047	1798	
7048	1802	
7049	1805	
7050	1807	
7051	1811	
7052	1816	
7053	1819	
7054	1823	
7055	1825	
7056	1829	
7057	1834	
7058	1837	
7059	1840	
7060	1843	
7061	1847	
7062	1852	
7063	1855	
7064	1858	
7065	1861	
7066	1867	
7067	1870	
7068	1873	
7069	1876	
7070	1881	
7071	1885	
7072	1888	
7073	1891	
7074	1896	
7075	1900	
7076	1903	
7077	1907	
7078	1912	
7079	1915	
7080	1918	
7081	1922	
7082	1926	
7083	1931	
7084	1934	
7085	1937	
7086	1941	
7087	1944	
7088	1948	
7089	1953	
7090	1957	
7091	1960	
7092	1964	
7093	1967	
7094	1970	
7095	1974	
7096	1980	
7097	1983	
7098	1986	
7099	1989	
7100	1994	
7101	1998	
7102	2000	
7103	2005	
7104	2010	
7105	2014	
7106	2017	
7107	2020	
7108	2023	
7109	2027	
7110	2032	
7111	2037	
7112	2039	
7113	2042	
7114	2046	
7115	2051	
7116	2055	
7117	2059	
7118	2062	
7119	2066	
7120	2070	
7121	2073	
7122	2076	
7123	2081	
7124	2085	
7125	2090	
7126	2094	
7127	2097	
7128	2101	
7129	2105	
7130	2108	
7131	2112	
7132	2116	
7133	2120	
7134	2124	
7135	2127	
7136	2131	
7137	2135	
7138	2139	
7139	2142	
7140	2146	
7141	2150	
7142	2154	
7143	2158	
7144	2161	
7145	2166	
7146	2169	
7147	2174	
7148	2178	
7149	2181	
7150	2185	
7151	2190	
7152	2193	
7153	2197	
7154	2200	
7155	2203	
7156	2207	
7157	2211	
7158	2215	
7159	2219	
7160	2222	
7161	2227	
7162	2230	
7163	2234	
7164	2237	
7165	2240	
7166	2244	
7167	2248	
7168	2252	
7169	2257	
7170	2261	
7171	2264	
7172	2267	
7173	2270	
7174	2273	
7175	2277	
7176	2282	
7177	2284	
7178	2289	
7179	2293	
7180	2297	
7181	2300	
7182	2304	
7183	2307	
7184	2310	
7185	2314	
7186	2317	
7187	2321	
7188	2324	
7189	2328	
7190	2331	
7191	2336	
7192	2340	
7193	2343	
7194	2346	
7195	2349	
7196	2353	
7197	2357	
7198	2361	
7199	2364	
7200	2368	
7201	2372	
7202	2375	
7203	2378	
7204	2382	
7205	2386	
7206	2390	
7207	2393	
7208	2396	
7209	2400	
7210	2404	
7211	2406	
7212	2409	
7213	2413	
7214	2416	
7215	2420	
7216	2424	
7217	2428	
7218	2431	
7219	2435	
7220	2438	
7221	2442	
7222	2445	
7223	2448	
7224	2451	
7225	2455	
7226	2458	
7227	2461	
7228	2466	
7229	2469	
7230	2473	
7231	2476	
7232	2478	
7233	2482	
7234	2486	
7235	2489	
7236	2493	
7237	2496	
7238	2499	
7239	2503	
7240	2506	
7241	2509	
7242	2512	
7243	2515	
7244	2519	
7245	2522	
7246	2526	
7247	2529	
7248	2532	
7249	2536	
7250	2539	
7251	2542	
7252	2545	
7253	2549	
7254	2552	
7255	2555	
7256	2558	
7257	2561	
7258	2565	
7259	2568	
7260	2571	
7261	2574	
7262	2578	
7263	2580	
7264	2583	
7265	2587	
7266	2589	
7267	2593	
7268	2596	
7269	2600	
7270	2603	
7271	2607	
7272	2610	
7273	2612	
7274	2616	
7275	2618	
7276	2622	
7277	2625	
7278	2628	
7279	2631	
7280	2634	
7281	2637	
7282	2641	
7283	2644	
7284	2647	
7285	2650	
7286	2654	
7287	2657	
7288	2660	
7289	2663	
7290	2667	
7291	2670	
7292	2673	
7293	2676	
7294	2679	
7295	2683	
7296	2685	
7297	2688	
7298	2691	
7299	2694	
7300	2697	
7301	2701	
7302	2704	
7303	2707	
7304	2710	
7305	2712	
7306	2715	
7307	2718	
7308	2721	
7309	2725	
7310	2728	
7311	2731	
7312	2735	
7313	2737	
7314	2740	
7315	2742	
7316	2745	
7317	2748	
7318	2751	
7319	2755	
7320	2759	
7321	2762	
7322	2765	
7323	2768	
7324	2772	
7325	2775	
7326	2778	
7327	2782	
7328	2784	
7329	2788	
7330	2791	
7331	2793	
7332	2797	
7333	2800	
7334	2803	
7335	2806	
7336	2808	
7337	2812	
7338	2815	
7339	2818	
7340	2821	
7341	2824	
7342	2828	
7343	2830	
7344	2834	
7345	2836	
7346	2839	
7347	2842	
7348	2846	
7349	2848	
7350	2851	
7351	2853	
7352	2855	
7353	2858	
7354	2862	
7355	2864	
7356	2867	
7357	2868	
7358	2870	
7359	2873	
7360	2875	
7361	2880	
7362	2881	
7363	2883	
7364	2885	
7365	2886	
7366	2889	
7367	2892	
7368	2894	
7369	2897	
7370	2898	
7371	2900	
7372	2902	
7373	2904	
7374	2907	
7375	2909	
7376	2911	
7377	2913	
7378	2917	
7379	2920	
7380	2921	
7381	2923	
7382	2926	
7383	2928	
7384	2930	
7385	2933	
7386	2936	
7387	2939	
7388	2941	
7389	2943	
7390	2947	
7391	2950	
7392	2953	
7393	2955	
7394	2958	
7395	2960	
7396	2964	
7397	2969	
7398	2971	
7399	2974	
7400	2976	
7401	2979	
7402	2983	
7403	2987	
7404	2990	
7405	2993	
7406	2996	
7407	3000	
7408	3004	
7409	3007	
7410	3011	
7411	3013	
7412	3016	
7413	3020	
7414	3023	
7415	3025	
7416	3028	
7417	3034	
7418	3036	
7419	3038	
7420	3041	
7421	3045	
7422	3049	
7423	3051	
7424	3054	
7425	3056	
7426	3061	
7427	3063	
7428	3065	
7429	3067	
7430	3070	
7431	3074	
7432	3077	
7433	3079	
7434	3081	
7435	3084	
7436	3087	
7437	3089	
7438	3090	
7439	3093	
7440	3097	
7441	3099	
7442	3101	
7443	3103	
7444	3106	
7445	3109	
7446	3111	
7447	3112	
7448	3114	
7449	3119	
7450	3120	
7451	3121	
7452	3124	
7453	3128	
7454	3129	
7455	3131	
7456	3132	
7457	3136	
7458	3137	
7459	3139	
7460	3141	
7461	3143	
7462	3147	
7463	3149	
7464	3150	
7465	3152	
7466	3155	
7467	3157	
7468	3159	
7469	3161	
7470	3163	
7471	3165	
7472	3168	
7473	3170	
7474	3172	
7475	3173	
7476	3175	
7477	3178	
7478	3181	
7479	3183	
7480	3185	
7481	3186	
7482	3188	
7483	3192	
7484	3194	
7485	3196	
7486	3197	
7487	3199	
7488	3200	
7489	3204	
7490	3206	
7491	3208	
7492	3211	
7493	3213	
7494	3214	
7495	3216	
7496	3218	
7497	3221	
7498	3223	
7499	3226	
7500	3228	
7501	3229	
7502	3231	
7503	3232	
7504	3237	
7505	3239	
7506	3240	
7507	3241	
7508	3244	
7509	3245	
7510	3249	
7511	3251	
7512	3254	
7513	3256	
7514	3257	
7515	3258	
7516	3260	
7517	3263	
7518	3266	
7519	3268	
7520	3269	
7521	3270	
7522	3273	
7523	3275	
7524	3277	
7525	3280	
7526	3282	
7527	3282	
7528	3284	
7529	3288	
7530	3289	
7531	3291	
7532	3293	
7533	3295	
7534	3296	
7535	3299	
7536	3301	
7537	3302	
7538	3304	
7539	3306	
7540	3308	
7541	3309	
7542	3312	
7543	3313	
7544	3314	
7545	3316	
7546	3318	
7547	3320	
7548	3320	
7549	3323	
7550	3326	
7551	3328	
7552	3328	
7553	3329	
7554	3332	
7555	3334	
7556	3334	
7557	3336	
7558	3337	
7559	3340	
7560	3342	
7561	3343	
7562	3344	
7563	3345	
7564	3346	
7565	3349	
7566	3352	
7567	3353	
7568	3353	
7569	3355	
7570	3356	
7571	3358	
7572	3360	
7573	3361	
7574	3362	
7575	3363	
7576	3367	
7577	3367	
7578	3369	
7579	3369	
7580	3371	
7581	3374	
7582	3375	
7583	3375	
7584	3377	
7585	3377	
7586	3380	
7587	3381	
7588	3383	
7589	3384	
7590	3385	
7591	3387	
7592	3389	
7593	3391	
7594	3391	
7595	3392	
7596	3394	
7597	3396	
7598	3397	
7599	3399	
7600	3400	
7601	3401	
7602	3402	
7603	3403	
7604	3405	
7605	3408	
7606	3409	
7607	3409	
7608	3411	
7609	3412	
7610	3414	
7611	3416	
7612	3417	
7613	3418	
7614	3419	
7615	3420	
7616	3421	
7617	3423	
7618	3424	
7619	3426	
7620	3426	
7621	3427	
7622	3429	
7623	3431	
7624	3432	
7625	3433	
7626	3433	
7627	3434	
7628	3436	
7629	3438	
7630	3439	
7631	3439	
7632	3440	
7633	3442	
7634	3444	
7635	3446	
7636	3445	
7637	3446	
7638	3448	
7639	3447	
7640	3450	
7641	3452	
7642	3451	
7643	3453	
7644	3454	
7645	3455	
7646	3456	
7647	3457	
7648	3458	
7649	3458	
7650	3459	
7651	3462	
7652	3461	
7653	3463	
7654	3464	
7655	3466	
7656	3467	
7657	3466	
7658	3467	
7659	3469	
7660	3470	
7661	3471	
7662	3470	
7663	3472	
7664	3472	
7665	3473	
7666	3475	
7667	3475	
7668	3476	
7669	3477	
7670	3476	
7671	3478	
7672	3478	
7673	3479	
7674	3481	
7675	3482	
7676	3482	
7677	3482	
7678	3482	
7679	3482	
7680	3483	
7681	3484	
7682	3485	
7683	3486	
7684	3486	
7685	3487	
7686	3487	
7687	3487	
7688	3486	
7689	3488	
7690	3488	
7691	3488	
7692	3489	
7693	3491	
7694	3491	
7695	3492	
7696	3492	
7697	3493	
7698	3492	
7699	3493	
7700	3492	
7701	3492	
7702	3493	
7703	3494	
7704	3496	
7705	3495	
7706	3495	
7707	3496	
7708	3496	
7709	3495	
7710	3498	
7711	3499	
7712	3499	
7713	3500	
7714	3499	
7715	3499	
7716	3499	
7717	3500	
7718	3501	
7719	3502	
7720	3501	
7721	3501	
7722	3502	
7723	3502	
7724	3502	
7725	3504	
7726	3505	
7727	3505	
7728	3504	
7729	3504	
7730	3505	
7731	3506	
7732	3506	
7733	3508	
7734	3509	
7735	3509	
7736	3508	
7737	3508	
7738	3508	
7739	3509	
7740	3509	
7741	3510	
7742	3510	
7743	3511	
7744	3512	
7745	3514	
7746	3512	
7747	3512	
7748	3513	
7749	3514	
7750	3514	
7751	3515	
7752	3514	
7753	3515	
7754	3516	
7755	3516	
7756	3518	
7757	3517	
7758	3517	
7759	3517	
7760	3519	
7761	3518	
7762	3519	
7763	3519	
7764	3520	
7765	3519	
7766	3520	
7767	3520	
7768	3520	
7769	3520	
7770	3522	
7771	3522	
7772	3521	
7773	3522	
7774	3522	
7775	3523	
7776	3523	
7777	3523	
7778	3525	
7779	3525	
7780	3525	
7781	3526	
7782	3525	
7783	3526	
7784	3525	
7785	3526	
7786	3526	
7787	3526	
7788	3525	
7789	3527	
7790	3528	
7791	3528	
7792	3528	
7793	3528	
7794	3529	
7795	3529	
7796	3529	
7797	3530	
7798	3529	
7799	3529	
7800	3530	
7801	3529	
7802	3530	
7803	3531	
7804	3532	
7805	3532	
7806	3533	
7807	3534	
7808	3532	
7809	3533	
7810	3533	
7811	3533	
7812	3534	
7813	3534	
7814	3536	
7815	3536	
7816	3536	
7817	3536	
7818	3535	
7819	3535	
7820	3538	
7821	3538	
7822	3537	
7823	3538	
7824	3538	
7825	3539	
7826	3539	
7827	3539	
7828	3539	
7829	3539	
7830	3540	
7831	3541	
7832	3541	
7833	3541	
7834	3542	
7835	3543	
7836	3543	
7837	3543	
7838	3544	
7839	3543	
7840	3542	
7841	3543	
7842	3545	
7843	3545	
7844	3545	
7845	3544	
7846	3544	
7847	3545	
7848	3546	
7849	3545	
7850	3545	
7851	3547	
7852	3546	
7853	3545	
7854	3545	
7855	3547	
7856	3546	
7857	3547	
7858	3547	
7859	3546	
7860	3547	
7861	3548	
7862	3547	
7863	3548	
7864	3549	
7865	3547	
7866	3549	
7867	3549	
7868	3548	
7869	3549	
7870	3550	
7871	3548	
7872	3550	
7873	3549	
7874	3548	
7875	3549	
7876	3551	
7877	3550	
7878	3550	
7879	3550	
7880	3550	
7881	3550	
7882	3551	
7883	3552	
7884	3551	
7885	3551	
7886	3551	
7887	3551	
7888	3552	
7889	3552	
7890	3552	
7891	3552	
7892	3553	
7893	3553	
7894	3552	
7895	3553	
7896	3554	
7897	3552	
7898	3552	
7899	3554	
7900	3553	
7901	3552	
7902	3555	
7903	3553	
7904	3554	
7905	3555	
7906	3553	
7907	3555	
7908	3556	
7909	3554	
7910	3556	
7911	3554	
7912	3555	
7913	3556	
7914	3554	
7915	3557	
7916	3556	
7917	3556	
7918	3556	
7919	3555	
7920	3555	
7921	3556	
7922	3558	
7923	3558	
7924	3558	
7925	3556	
7926	3556	
7927	3558	
7928	3558	
7929	3558	
7930	3558	
7931	3558	
7932	3560	
7933	3560	
7934	3558	
7935	3559	
7936	3560	
7937	3560	
7938	3560	
7939	3561	
7940	3561	
7941	3562	
7942	3560	
7943	3561	
7944	3561	
7945	3561	
7946	3561	
7947	3563	
7948	3563	
7949	3562	
7950	3563	
7951	3561	
7952	3562	
7953	3563	
7954	3563	
7955	3563	
7956	3563	
7957	3563	
7958	3563	
7959	3564	
7960	3565	
7961	3566	
7962	3566	
7963	3565	
7964	3565	
7965	3564	
7966	3564	
7967	3565	
7968	3566	
7969	3566	
7970	3567	
7971	3566	
7972	3566	
7973	3566	
7974	3566	
7975	3567	
7976	3568	
7977	3567	
7978	3568	
7979	3566	
7980	3567	
7981	3567	
7982	3567	
7983	3567	
7984	3567	
7985	3568	
7986	3567	
7987	3567	
7988	3566	
7989	3568	
7990	3568	
7991	3568	
7992	3568	
7993	3567	
7994	3567	
7995	3567	
7996	3567	
7997	3568	
7998	3568	
7999	3568	
8000	3569	
8001	3569	
8002	3569	
8003	3569	
8004	3568	
8005	3568	
8006	3569	
8007	3570	
8008	3569	
8009	3570	
8010	3571	
8011	3569	
8012	3570	
8013	3570	
8014	3571	
8015	3571	
8016	3572	
8017	3573	
8018	3572	
8019	3571	
8020	3572	
8021	3572	
8022	3572	
8023	3574	
8024	3573	
8025	3573	
8026	3572	
8027	3573	
8028	3574	
8029	3574	
8030	3574	
8031	3573	
8032	3574	
8033	3575	
8034	3574	
8035	3575	
8036	3575	
8037	3575	
8038	3576	
8039	3576	
8040	3576	
8041	3575	
8042	3576	
8043	3577	
8044	3578	
8045	3577	
8046	3578	
8047	3578	
8048	3580	
8049	3580	
8050	3580	
8051	3580	
8052	3581	
8053	3582	
8054	3581	
8055	3581	
8056	3582	
8057	3582	
8058	3583	
8059	3582	
8060	3582	
8061	3583	
8062	3584	
8063	3584	
8064	3584	
8065	3583	
8066	3583	
8067	3584	
8068	3584	
8069	3586	
8070	3583	
8071	3583	
8072	3583	
8073	3584	
8074	3584	
8075	3583	
8076	3582	
8077	3582	
8078	3582	
8079	3582	
8080	3582	
8081	3582	
8082	3580	
8083	3580	
8084	3581	
8085	3579	
8086	3577	
8087	3577	
8088	3576	
8089	3577	
8090	3575	
8091	3574	
8092	3573	
8093	3572	
8094	3571	
8095	3572	
8096	3570	
8097	3570	
8098	3568	
8099	3567	
8100	3567	
8101	3566	
8102	3566	
8103	3566	
8104	3564	
8105	3564	
8106	3564	
8107	3562	
8108	3562	
8109	3563	
8110	3562	
8111	3563	
8112	3562	
8113	3560	
8114	3561	
8115	3561	
8116	3562	
8117	3562	
8118	3562	
8119	3561	
8120	3561	
8121	3561	
8122	3562	
8123	3562	
8124	3564	
8125	3563	
8126	3562	
8127	3563	
8128	3564	
8129	3565	
8130	3565	
8131	3565	
8132	3567	
8133	3566	
8134	3567	
8135	3567	
8136	3568	
8137	3568	
8138	3568	
8139	3567	
8140	3569	
8141	3571	
8142	3570	
8143	3570	
8144	3570	
8145	3571	
8146	3571	
8147	3572	
8148	3572	
8149	3571	
8150	3572	
8151	3572	
8152	3574	
8153	3573	
8154	3573	
8155	3572	
8156	3573	
8157	3572	
8158	3572	
8159	3572	
8160	3573	
8161	3574	
8162	3573	
8163	3572	
8164	3572	
8165	3571	
8166	3573	
8167	3573	
8168	3573	
8169	3573	
8170	3573	
8171	3571	
8172	3570	
8173	3571	
8174	3571	
8175	3571	
8176	3573	
8177	3573	
8178	3571	
8179	3571	
8180	3570	
8181	3571	
8182	3571	
8183	3571	
8184	3570	
8185	3571	
8186	3570	
8187	3569	
8188	3569	
8189	3569	
8190	3570	
8191	3571	
8192	3570	
8193	3569	
8194	3568	
8195	3569	
8196	3570	
8197	3571	
8198	3571	
8199	3569	
8200	3570	
8201	3570	
8202	3570	
8203	3569	
8204	3570	
8205	3570	
8206	3569	
8207	3570	
8208	3570	
8209	3571	
8210	3570	
8211	3569	
8212	3571	
8213	3569	
8214	3571	
8215	3571	
8216	3571	
8217	3571	
8218	3572	
8219	3571	
8220	3570	
8221	3572	
8222	3572	
8223	3572	
8224	3572	
8225	3572	
8226	3572	
8227	3573	
8228	3573	
8229	3572	
8230	3572	
8231	3573	
8232	3574	
8233	3574	
8234	3573	
8235	3572	
8236	3573	
8237	3573	
8238	3574	
8239	3574	
8240	3573	
8241	3573	
8242	3574	
8243	3574	
8244	3575	
8245	3575	
8246	3574	
8247	3573	
8248	3575	
8249	3574	
8250	3576	
8251	3575	
8252	3575	
8253	3574	
8254	3574	
8255	3576	
8256	3575	
8257	3574	
8258	3575	
8259	3575	
8260	3575	
8261	3575	
8262	3574	
8263	3574	
8264	3575	
8265	3576	
8266	3575	
8267	3575	
8268	3575	
8269	3576	
8270	3575	
8271	3575	
8272	3575	
8273	3574	
8274	3575	
8275	3575	
8276	3575	
8277	3575	
8278	3575	
8279	3574	
8280	3574	
8281	3575	
8282	3575	
8283	3574	
8284	3573	
8285	3574	
8286	3576	
8287	3575	
8288	3574	
8289	3574	
8290	3574	
8291	3574	
8292	3574	
8293	3573	
8294	3573	
8295	3573	
8296	3573	
8297	3573	
8298	3574	
8299	3573	
8300	3574	
8301	3573	
8302	3573	
8303	3571	
8304	3573	
8305	3573	
8306	3573	
8307	3573	
8308	3573	
8309	3572	
8310	3574	
8311	3574	
8312	3573	
8313	3572	
8314	3573	
8315	3573	
8316	3574	
8317	3574	
8318	3574	
8319	3572	
8320	3573	
8321	3573	
8322	3574	
8323	3574	
8324	3574	
8325	3574	
8326	3574	
8327	3573	
8328	3574	
8329	3573	
8330	3574	
8331	3574	
8332	3574	
8333	3573	
8334	3573	
8335	3572	
8336	3572	
8337	3574	
8338	3574	
8339	3574	
8340	3572	
8341	3572	
8342	3572	
8343	3573	
8344	3574	
8345	3573	
8346	3572	
8347	3571	
8348	3571	
8349	3572	
8350	3572	
8351	3572	
8352	3571	
8353	3570	
8354	3570	
8355	3571	
8356	3570	
8357	3572	
8358	3569	
8359	3569	
8360	3568	
8361	3569	
8362	3569	
8363	3569	
8364	3568	
8365	3566	
8366	3567	
8367	3566	
8368	3568	
8369	3568	
8370	3566	
8371	3565	
8372	3564	
8373	3564	
8374	3565	
8375	3565	
8376	3564	
8377	3564	
8378	3563	
8379	3562	
8380	3562	
8381	3562	
8382	3563	
8383	3562	
8384	3562	
8385	3560	
8386	3561	
8387	3560	
8388	3560	
8389	3558	
8390	3558	
8391	3559	
8392	3559	
8393	3557	
8394	3556	
8395	3556	
8396	3556	
8397	3557	
8398	3556	
8399	3555	
8400	3554	
8401	3553	
8402	3553	
8403	3554	
8404	3553	
8405	3552	
8406	3550	
8407	3551	
8408	3551	
8409	3551	
8410	3551	
8411	3551	
8412	3550	
8413	3548	
8414	3548	
8415	3547	
8416	3548	
8417	3548	
8418	3548	
8419	3547	
8420	3546	
8421	3546	
8422	3545	
8423	3544	
8424	3544	
8425	3544	
8426	3545	
8427	3545	
8428	3544	
8429	3544	
8430	3543	
8431	3544	
8432	3542	
8433	3541	
8434	3542	
8435	3542	
8436	3542	
8437	3540	
8438	3540	
8439	3540	
8440	3540	
8441	3540	
8442	3540	
8443	3540	
8444	3539	
8445	3538	
8446	3538	
8447	3538	
8448	3537	
8449	3538	
8450	3537	
8451	3537	
8452	3536	
8453	3535	
8454	3534	
8455	3534	
8456	3534	
8457	3534	
8458	3534	
8459	3534	
8460	3534	
8461	3533	
8462	3533	
8463	3532	
8464	3532	
8465	3531	
8466	3530	
8467	3530	
8468	3529	
8469	3529	
8470	3530	
8471	3529	
8472	3529	
8473	3529	
8474	3528	
8475	3527	
8476	3526	
8477	3526	
8478	3525	
8479	3524	
8480	3524	
8481	3524	
8482	3524	
8483	3523	
8484	3522	
8485	3522	
8486	3521	
8487	3521	
8488	3520	
8489	3520	
8490	3520	
8491	3519	
8492	3520	
8493	3520	
8494	3520	
8495	3519	
8496	3520	
8497	3520	
8498	3521	
8499	3522	
8500	3521	
8501	3523	
8502	3522	
8503	3522	
8504	3521	
8505	3522	
8506	3521	
8507	3523	
8508	3524	
8509	3526	
8510	3524	
8511	3525	
8512	3524	
8513	3525	
8514	3525	
8515	3525	
8516	3527	
8517	3528	
8518	3528	
8519	3528	
8520	3529	
8521	3528	
8522	3530	
8523	3529	
8524	3530	
8525	3531	
8526	3532	
8527	3532	
8528	3532	
8529	3531	
8530	3533	
8531	3532	
8532	3532	
8533	3532	
8534	3531	
8535	3532	
8536	3532	
8537	3531	
8538	3532	
8539	3532	
8540	3533	
8541	3533	
8542	3532	
8543	3533	
8544	3533	
8545	3531	
8546	3531	
8547	3530	
8548	3529	
8549	3530	
8550	3529	
8551	3529	
8552	3530	
8553	3529	
8554	3528	
8555	3526	
8556	3526	
8557	3525	
8558	3523	
8559	3523	
8560	3522	
8561	3522	
8562	3520	
8563	3520	
8564	3520	
8565	3520	
8566	3518	
8567	3518	
8568	3515	
8569	3515	
8570	3514	
8571	3514	
8572	3513	
8573	3512	
8574	3512	
8575	3511	
8576	3510	
8577	3509	
8578	3507	
8579	3506	
8580	3505	
8581	3505	
8582	3504	
8583	3503	
8584	3502	
8585	3502	
8586	3501	
8587	3501	
8588	3500	
8589	3501	
8590	3499	
8591	3498	
8592	3498	
8593	3497	
8594	3496	
8595	3495	
8596	3495	
8597	3494	
8598	3494	
8599	3493	
8600	3493	
8601	3493	
8602	3493	
8603	3492	
8604	3492	
8605	3491	
8606	3491	
8607	3491	
8608	3492	
8609	3491	
8610	3491	
8611	3490	
8612	3489	
8613	3490	
8614	3490	
8615	3490	
8616	3491	
8617	3490	
8618	3491	
8619	3490	
8620	3491	
8621	3491	
8622	3489	
8623	3489	
8624	3490	
8625	3492	
8626	3491	
8627	3491	
8628	3491	
8629	3491	
8630	3490	
8631	3491	
8632	3491	
8633	3492	
8634	3492	
8635	3493	
8636	3492	
8637	3492	
8638	3492	
8639	3491	
8640	3492	
8641	3492	
8642	3492	
8643	3491	
8644	3491	
8645	3492	
8646	3494	
8647	3491	
8648	3491	
8649	3492	
8650	3492	
8651	3493	
8652	3492	
8653	3490	
8654	3490	
8655	3491	
8656	3491	
8657	3492	
8658	3491	
8659	3491	
8660	3490	
8661	3490	
8662	3488	
8663	3490	
8664	3490	
8665	3488	
8666	3488	
8667	3488	
8668	3488	
8669	3487	
8670	3487	
8671	3488	
8672	3488	
8673	3487	
8674	3485	
8675	3485	
8676	3484	
8677	3484	
8678	3485	
8679	3485	
8680	3483	
8681	3483	
8682	3482	
8683	3482	
8684	3481	
8685	3481	
8686	3480	
8687	3481	
8688	3481	
8689	3481	
8690	3480	
8691	3480	
8692	3479	
8693	3479	
8694	3478	
8695	3478	
8696	3477	
8697	3477	
8698	3477	
8699	3477	
8700	3477	
8701	3476	
8702	3475	
8703	3474	
8704	3474	
8705	3474	
8706	3474	
8707	3474	
8708	3475	
8709	3475	
8710	3474	
8711	3473	
8712	3473	
8713	3473	
8714	3472	
8715	3472	
8716	3472	
8717	3472	
8718	3470	
8719	3471	
8720	3470	
8721	3471	
8722	3471	
8723	3471	
8724	3471	
8725	3470	
8726	3470	
8727	3469	
8728	3469	
8729	3468	
8730	3467	
8731	3467	
8732	3467	
8733	3466	
8734	3467	
8735	3467	
8736	3466	
8737	3466	
8738	3464	
8739	3464	
8740	3464	
8741	3462	
8742	3464	
8743	3463	
8744	3462	
8745	3463	
8746	3462	
8747	3461	
8748	3460	
8749	3459	
8750	3459	
8751	3460	
8752	3459	
8753	3459	
8754	3457	
8755	3457	
8756	3457	
8757	3456	
8758	3455	
8759	3456	
8760	3456	
8761	3456	
8762	3456	
8763	3454	
8764	3454	
8765	3453	
8766	3453	
8767	3453	
8768	3452	
8769	3451	
8770	3452	
8771	3451	
8772	3451	
8773	3450	
8774	3451	
8775	3450	
8776	3450	
8777	3449	
8778	3449	
8779	3448	
8780	3448	
8781	3447	
8782	3446	
8783	3446	
8784	3446	
8785	3446	
8786	3445	
8787	3444	
8788	3444	
8789	3443	
8790	3443	
8791	3443	
8792	3442	
8793	3441	
8794	3442	
8795	3441	
8796	3440	
8797	3440	
8798	3437	
8799	3438	
8800	3437	
8801	3437	
8802	3438	
8803	3437	
8804	3436	
8805	3436	
8806	3434	
8807	3433	
8808	3433	
8809	3434	
8810	3434	
8811	3432	
8812	3431	
8813	3430	
8814	3430	
8815	3431	
8816	3430	
8817	3430	
8818	3428	
8819	3428	
8820	3428	
8821	3428	
8822	3428	
8823	3426	
8824	3426	
8825	3426	
8826	3426	
8827	3426	
8828	3425	
8829	3425	
8830	3424	
8831	3423	
8832	3422	
8833	3422	
8834	3422	
8835	3422	
8836	3420	
8837	3420	
8838	3420	
8839	3421	
8840	3421	
8841	3419	
8842	3418	
8843	3419	
8844	3418	
8845	3418	
8846	3418	
8847	3418	
8848	3416	
8849	3415	
8850	3415	
8851	3415	
8852	3414	
8853	3415	
8854	3414	
8855	3414	
8856	3414	
8857	3412	
8858	3412	
8859	3412	
8860	3410	
8861	3410	
8862	3411	
8863	3410	
8864	3411	
8865	3409	
8866	3409	
8867	3409	
8868	3407	
8869	3406	
8870	3406	
8871	3405	
8872	3405	
8873	3404	
8874	3404	
8875	3404	
8876	3404	
8877	3402	
8878	3401	
8879	3402	
8880	3401	
8881	3400	
8882	3400	
8883	3399	
8884	3399	
8885	3398	
8886	3397	
8887	3396	
8888	3396	
8889	3396	
8890	3396	
8891	3396	
8892	3395	
8893	3393	
8894	3392	
8895	3392	
8896	3392	
8897	3391	
8898	3391	
8899	3390	
8900	3390	
8901	3388	
8902	3388	
8903	3388	
8904	3388	
8905	3387	
8906	3387	
8907	3386	
8908	3385	
8909	3384	
8910	3383	
8911	3383	
8912	3383	
8913	3383	
8914	3382	
8915	3382	
8916	3380	
8917	3380	
8918	3380	
8919	3380	
8920	3380	
8921	3379	
8922	3379	
8923	3378	
8924	3377	
8925	3376	
8926	3376	
8927	3375	
8928	3374	
8929	3374	
8930	3373	
8931	3374	
8932	3374	
8933	3372	
8934	3373	
8935	3372	
8936	3372	
8937	3372	
8938	3370	
8939	3370	
8940	3369	
8941	3369	
8942	3368	
8943	3368	
8944	3368	
8945	3368	
8946	3368	
8947	3368	
8948	3367	
8949	3366	
8950	3365	
8951	3365	
8952	3366	
8953	3366	
8954	3365	
8955	3365	
8956	3364	
8957	3363	
8958	3363	
8959	3363	
8960	3363	
8961	3363	
8962	3362	
8963	3363	
8964	3361	
8965	3360	
8966	3360	
8967	3360	
8968	3360	
8969	3360	
8970	3360	
8971	3360	
8972	3359	
8973	3358	
8974	3357	
8975	3356	
8976	3356	
8977	3357	
8978	3357	
8979	3356	
8980	3354	
8981	3353	
8982	3354	
8983	3354	
8984	3355	
8985	3354	
8986	3353	
8987	3351	
8988	3351	
8989	3351	
8990	3350	
8991	3351	
8992	3351	
8993	3351	
8994	3349	
8995	3348	
8996	3348	
8997	3348	
8998	3348	
8999	3348	
9000	3347	
9001	3345	
9002	3345	
9003	3345	
9004	3345	
9005	3345	
9006	3344	
9007	3342	
9008	3342	
9009	3341	
9010	3341	
9011	3342	
9012	3341	
9013	3341	
9014	3340	
9015	3339	
9016	3339	
9017	3338	
9018	3338	
9019	3338	
9020	3338	
9021	3338	
9022	3338	
9023	3336	
9024	3336	
9025	3335	
9026	3336	
9027	3335	
9028	3335	
9029	3334	
9030	3333	
9031	3332	
9032	3331	
9033	3333	
9034	3332	
9035	3332	
9036	3331	
9037	3331	
9038	3330	
9039	3328	
9040	3328	
9041	3327	
9042	3328	
9043	3328	
9044	3327	
9045	3327	
9046	3325	
9047	3324	
9048	3325	
9049	3325	
9050	3325	
9051	3324	
9052	3323	
9053	3322	
9054	3322	
9055	3321	
9056	3321	
9057	3321	
9058	3321	
9059	3321	
9060	3319	
9061	3318	
9062	3316	
9063	3317	
9064	3317	
9065	3318	
9066	3317	
9067	3316	
9068	3315	
9069	3314	
9070	3314	
9071	3315	
9072	3314	
9073	3313	
9074	3313	
9075	3312	
9076	3312	
9077	3311	
9078	3311	
9079	3311	
9080	3310	
9081	3309	
9082	3309	
9083	3308	
9084	3307	
9085	3308	
9086	3308	
9087	3307	
9088	3307	
9089	3306	
9090	3304	
9091	3304	
9092	3305	
9093	3304	
9094	3305	
9095	3303	
9096	3302	
9097	3301	
9098	3301	
9099	3300	
9100	3300	
9101	3300	
9102	3300	
9103	3300	
9104	3300	
9105	3299	
9106	3298	
9107	3297	
9108	3296	
9109	3295	
9110	3295	
9111	3295	
9112	3294	
9113	3294	
9114	3294	
9115	3293	
9116	3293	
9117	3293	
9118	3293	
9119	3293	
9120	3291	
9121	3290	
9122	3291	
9123	3290	
9124	3290	
9125	3289	
9126	3287	
9127	3287	
9128	3287	
9129	3286	
9130	3285	
9131	3286	
9132	3286	
9133	3286	
9134	3286	
9135	3284	
9136	3284	
9137	3282	
9138	3281	
9139	3282	
9140	3281	
9141	3280	
9142	3280	
9143	3280	
9144	3280	
9145	3278	
9146	3278	
9147	3278	
9148	3277	
9149	3276	
9150	3276	
9151	3275	
9152	3275	
9153	3274	
9154	3273	
9155	3274	
9156	3273	
9157	3272	
9158	3272	
9159	3271	
9160	3271	
9161	3271	
9162	3270	
9163	3270	
9164	3270	
9165	3270	
9166	3269	
9167	3267	
9168	3267	
9169	3266	
9170	3266	
9171	3266	
9172	3266	
9173	3265	
9174	3266	
9175	3264	
9176	3264	
9177	3263	
9178	3262	
9179	3261	
9180	3260	
9181	3260	
9182	3261	
9183	3260	
9184	3261	
9185	3260	
9186	3259	
9187	3257	
9188	3258	
9189	3258	
9190	3258	
9191	3257	
9192	3257	
9193	3255	
9194	3255	
9195	3254	
9196	3253	
9197	3254	
9198	3253	
9199	3253	
9200	3253	
9201	3252	
9202	3252	
9203	3251	
9204	3252	
9205	3251	
9206	3250	
9207	3250	
9208	3249	
9209	3247	
9210	3247	
9211	3246	
9212	3246	
9213	3246	
9214	3246	
9215	3245	
9216	3245	
9217	3245	
9218	3245	
9219	3245	
9220	3243	
9221	3243	
9222	3242	
9223	3242	
9224	3241	
9225	3241	
9226	3239	
9227	3240	
9228	3238	
9229	3238	
9230	3239	
9231	3238	
9232	3238	
9233	3237	
9234	3238	
9235	3237	
9236	3237	
9237	3236	
9238	3236	
9239	3234	
9240	3233	
9241	3233	
9242	3232	
9243	3231	
9244	3231	
9245	3232	
9246	3232	
9247	3231	
9248	3230	
9249	3230	
9250	3230	
9251	3228	
9252	3228	
9253	3227	
9254	3227	
9255	3227	
9256	3227	
9257	3227	
9258	3226	
9259	3226	
9260	3225	
9261	3224	
9262	3224	
9263	3224	
9264	3224	
9265	3224	
9266	3223	
9267	3223	
9268	3221	
9269	3221	
9270	3220	
9271	3220	
9272	3221	
9273	3222	
9274	3221	
9275	3220	
9276	3218	
9277	3219	
9278	3219	
9279	3219	
9280	3218	
9281	3218	
9282	3216	
9283	3217	
9284	3216	
9285	3216	
9286	3216	
9287	3216	
9288	3215	
9289	3215	
9290	3214	
9291	3215	
9292	3214	
9293	3214	
9294	3213	
9295	3213	
9296	3213	
9297	3212	
9298	3211	
9299	3210	
9300	3210	
9301	3210	
9302	3210	
9303	3210	
9304	3209	
9305	3210	
9306	3209	
9307	3209	
9308	3209	
9309	3208	
9310	3208	
9311	3206	
9312	3206	
9313	3206	
9314	3206	
9315	3206	
9316	3206	
9317	3205	
9318	3205	
9319	3204	
9320	3204	
9321	3203	
9322	3203	
9323	3202	
9324	3202	
9325	3202	
9326	3200	
9327	3201	
9328	3201	
9329	3200	
9330	3200	
9331	3199	
9332	3198	
9333	3198	
9334	3198	
9335	3198	
9336	3198	
9337	3198	
9338	3197	
9339	3197	
9340	3196	
9341	3194	
9342	3194	
9343	3193	
9344	3193	
9345	3192	
9346	3193	
9347	3193	
9348	3192	
9349	3192	
9350	3192	
9351	3191	
9352	3189	
9353	3189	
9354	3188	
9355	3188	
9356	3188	
9357	3188	
9358	3189	
9359	3188	
9360	3187	
9361	3187	
9362	3186	
9363	3185	
9364	3185	
9365	3185	
9366	3184	
9367	3183	
9368	3185	
9369	3185	
9370	3184	
9371	3183	
9372	3182	
9373	3182	
9374	3181	
9375	3181	
9376	3180	
9377	3180	
9378	3180	
9379	3180	
9380	3179	
9381	3180	
9382	3180	
9383	3180	
9384	3178	
9385	3178	
9386	3177	
9387	3176	
9388	3176	
9389	3175	
9390	3175	
9391	3175	
9392	3175	
9393	3174	
9394	3174	
9395	3175	
9396	3173	
9397	3173	
9398	3173	
9399	3172	
9400	3172	
9401	3171	
9402	3171	
9403	3171	
9404	3170	
9405	3170	
9406	3168	
9407	3168	
9408	3168	
9409	3168	
9410	3168	
9411	3168	
9412	3168	
9413	3167	
9414	3166	
9415	3165	
9416	3165	
9417	3164	
9418	3165	
9419	3164	
9420	3165	
9421	3164	
9422	3163	
9423	3162	
9424	3161	
9425	3161	
9426	3160	
9427	3161	
9428	3161	
9429	3161	
9430	3160	
9431	3160	
9432	3159	
9433	3158	
9434	3157	
9435	3157	
9436	3157	
9437	3157	
9438	3158	
9439	3156	
9440	3156	
9441	3156	
9442	3154	
9443	3155	
9444	3154	
9445	3154	
9446	3153	
9447	3152	
9448	3153	
9449	3153	
9450	3153	
9451	3151	
9452	3151	
9453	3151	
9454	3150	
9455	3149	
9456	3148	
9457	3148	
9458	3149	
9459	3148	
9460	3148	
9461	3147	
9462	3146	
9463	3146	
9464	3145	
9465	3145	
9466	3145	
9467	3145	
9468	3145	
9469	3145	
9470	3145	
9471	3144	
9472	3145	
9473	3144	
9474	3144	
9475	3143	
9476	3144	
9477	3143	
9478	3143	
9479	3143	
9480	3144	
9481	3143	
9482	3143	
9483	3142	
9484	3142	
9485	3142	
9486	3142	
9487	3140	
9488	3140	
9489	3141	
9490	3141	
9491	3141	
9492	3141	
9493	3140	
9494	3139	
9495	3139	
9496	3138	
9497	3137	
9498	3137	
9499	3136	
9500	3136	
9501	3135	
9502	3134	
9503	3132	
9504	3131	
9505	3130	
9506	3129	
9507	3129	
9508	3127	
9509	3126	
9510	3124	
9511	3123	
9512	3121	
9513	3120	
9514	3120	
9515	3118	
9516	3117	
9517	3116	
9518	3114	
9519	3113	
9520	3112	
9521	3111	
9522	3111	
9523	3110	
9524	3107	
9525	3106	
9526	3106	
9527	3106	
9528	3106	
9529	3104	
9530	3104	
9531	3102	
9532	3102	
9533	3102	
9534	3102	
9535	3100	
9536	3100	
9537	3100	
9538	3100	
9539	3100	
9540	3099	
9541	3099	
9542	3098	
9543	3098	
9544	3098	
9545	3099	
9546	3099	
9547	3099	
9548	3099	
9549	3098	
9550	3098	
9551	3097	
9552	3099	
9553	3098	
9554	3098	
9555	3098	
9556	3098	
9557	3097	
9558	3097	
9559	3097	
9560	3098	
9561	3098	
9562	3098	
9563	3099	
9564	3098	
9565	3097	
9566	3097	
9567	3097	
9568	3096	
9569	3096	
9570	3095	
9571	3096	
9572	3096	
9573	3096	
9574	3096	
9575	3096	
9576	3094	
9577	3094	
9578	3093	
9579	3093	
9580	3094	
9581	3093	
9582	3093	
9583	3093	
9584	3093	
9585	3092	
9586	3091	
9587	3091	
9588	3090	
9589	3090	
9590	3091	
9591	3089	
9592	3089	
9593	3089	
9594	3089	
9595	3089	
9596	3088	
9597	3088	
9598	3087	
9599	3087	
9600	3087	
9601	3088	
9602	3088	
9603	3087	
9604	3087	
9605	3086	
9606	3085	
9607	3086	
9608	3086	
9609	3086	
9610	3087	
9611	3086	
9612	3085	
9613	3084	
9614	3086	
9615	3086	
9616	3086	
9617	3086	
9618	3085	
9619	3085	
9620	3085	
9621	3086	
9622	3086	
9623	3086	
9624	3085	
9625	3084	
9626	3085	
9627	3085	
9628	3086	
9629	3086	
9630	3085	
9631	3084	
9632	3084	
9633	3084	
9634	3084	
9635	3084	
9636	3086	
9637	3085	
9638	3085	
9639	3085	
9640	3085	
9641	3084	
9642	3084	
9643	3084	
9644	3084	
9645	3085	
9646	3085	
9647	3084	
9648	3084	
9649	3083	
9650	3083	
9651	3084	
9652	3084	
9653	3085	
9654	3084	
9655	3083	
9656	3084	
9657	3082	
9658	3082	
9659	3083	
9660	3084	
9661	3084	
9662	3084	
9663	3083	
9664	3083	
9665	3084	
9666	3083	
9667	3083	
9668	3084	
9669	3085	
9670	3083	
9671	3083	
9672	3082	
9673	3083	
9674	3083	
9675	3084	
9676	3083	
9677	3083	
9678	3082	
9679	3082	
9680	3082	
9681	3082	
9682	3083	
9683	3082	
9684	3082	
9685	3081	
9686	3082	
9687	3083	
9688	3083	
9689	3082	
9690	3080	
9691	3081	
9692	3081	
9693	3081	
9694	3081	
9695	3080	
9696	3080	
9697	3080	
9698	3080	
9699	3081	
9700	3080	
9701	3079	
9702	3079	
9703	3078	
9704	3079	
9705	3079	
9706	3080	
9707	3077	
9708	3077	
9709	3076	
9710	3078	
9711	3077	
9712	3078	
9713	3078	
9714	3077	
9715	3076	
9716	3076	
9717	3076	
9718	3076	
9719	3077	
9720	3075	
9721	3076	
9722	3076	
9723	3075	
9724	3075	
9725	3074	
9726	3074	
9727	3073	
9728	3073	
9729	3073	
9730	3074	
9731	3074	
9732	3075	
9733	3075	
9734	3074	
9735	3073	
9736	3073	
9737	3072	
9738	3073	
9739	3073	
9740	3074	
9741	3073	
9742	3074	
9743	3073	
9744	3073	
9745	3072	
9746	3072	
9747	3072	
9748	3071	
9749	3071	
9750	3071	
9751	3071	
9752	3071	
9753	3072	
9754	3071	
9755	3072	
9756	3070	
9757	3070	
9758	3070	
9759	3069	
9760	3069	
9761	3070	
9762	3070	
9763	3069	
9764	3069	
9765	3068	
9766	3068	
9767	3068	
9768	3067	
9769	3066	
9770	3066	
9771	3066	
9772	3065	
9773	3066	
9774	3066	
9775	3066	
9776	3065	
9777	3066	
9778	3065	
9779	3065	
9780	3063	
9781	3063	
9782	3061	
9783	3062	
9784	3062	
9785	3062	
9786	3063	
9787	3062	
9788	3061	
9789	3060	
9790	3059	
9791	3060	
9792	3060	
9793	3061	
9794	3060	
9795	3059	
9796	3058	
9797	3058	
9798	3058	
9799	3059	
9800	3058	
9801	3057	
9802	3056	
9803	3055	
9804	3056	
9805	3055	
9806	3055	
9807	3055	
9808	3055	
9809	3054	
9810	3053	
9811	3053	
9812	3051	
9813	3052	
9814	3053	
9815	3053	
9816	3052	
9817	3051	
9818	3049	
9819	3050	
9820	3049	
9821	3049	
9822	3050	
9823	3049	
9824	3049	
9825	3048	
9826	3047	
9827	3046	
9828	3046	
9829	3046	
9830	3046	
9831	3046	
9832	3045	
9833	3044	
9834	3044	
9835	3044	
9836	3044	
9837	3043	
9838	3043	
9839	3041	
9840	3041	
9841	3042	
9842	3041	
9843	3041	
9844	3041	
9845	3040	
9846	3040	
9847	3039	
9848	3038	
9849	3039	
9850	3039	
9851	3039	
9852	3038	
9853	3038	
9854	3036	
9855	3036	
9856	3036	
9857	3037	
9858	3037	
9859	3036	
9860	3036	
9861	3035	
9862	3035	
9863	3034	
9864	3034	
9865	3033	
9866	3033	
9867	3033	
9868	3033	
9869	3033	
9870	3033	
9871	3032	
9872	3032	
9873	3030	
9874	3030	
9875	3030	
9876	3030	
9877	3030	
9878	3030	
9879	3029	
9880	3029	
9881	3028	
9882	3028	
9883	3028	
9884	3027	
9885	3029	
9886	3028	
9887	3027	
9888	3026	
9889	3026	
9890	3025	
9891	3024	
9892	3025	
9893	3025	
9894	3025	
9895	3024	
9896	3024	
9897	3023	
9898	3022	
9899	3022	
9900	3021	
9901	3022	
9902	3022	
9903	3022	
9904	3021	
9905	3021	
9906	3019	
9907	3019	
9908	3019	
9909	3020	
9910	3019	
9911	3019	
9912	3019	
9913	3018	
9914	3017	
9915	3016	
9916	3015	
9917	3016	
9918	3016	
9919	3017	
9920	3015	
9921	3014	
9922	3013	
9923	3014	
9924	3014	
9925	3014	
9926	3013	
9927	3011	
9928	3011	
9929	3012	
9930	3012	
9931	3012	
9932	3012	
9933	3011	
9934	3010	
9935	3009	
9936	3009	
9937	3010	
9938	3010	
9939	3010	
9940	3008	
9941	3008	
9942	3007	
9943	3008	
9944	3008	
9945	3008	
9946	3008	
9947	3007	
9948	3006	
9949	3006	
9950	3006	
9951	3007	
9952	3006	
9953	3006	
9954	3006	
9955	3006	
9956	3005	
9957	3005	
9958	3004	
9959	3005	
9960	3004	
9961	3004	
9962	3004	
9963	3005	
9964	3004	
9965	3004	
9966	3003	
9967	3002	
9968	3003	
9969	3003	
9970	3003	
9971	3002	
9972	3002	
9973	3001	
9974	3001	
9975	3002	
9976	3002	
9977	3002	
9978	3001	
9979	3001	
9980	3000	
9981	2999	
9982	3000	
9983	3000	
9984	3000	
9985	3000	
9986	3000	
9987	2999	
9988	2998	
9989	2998	
9990	2998	
9991	2998	
9992	2998	
9993	2998	
9994	2998	
9995	2998	
9996	2996	
9997	2997	
9998	2996	
9999	2996	
10000	2996	
10001	2997	
10002	2996	
10003	2995	
10004	2995	
10005	2995	
10006	2994	
10007	2995	
10008	2995	
10009	2994	
10010	2994	
10011	2993	
10012	2993	
10013	2992	
10014	2992	
10015	2991	
10016	2990	
10017	2992	
10018	2991	
10019	2991	
10020	2992	
10021	2991	
10022	2989	
10023	2990	
10024	2988	
10025	2988	
10026	2989	
10027	2989	
10028	2988	
10029	2988	
10030	2988	
10031	2987	
10032	2986	
10033	2986	
10034	2986	
10035	2986	
10036	2986	
10037	2986	
10038	2985	
10039	2984	
10040	2985	
10041	2984	
10042	2984	
10043	2984	
10044	2984	
10045	2984	
10046	2983	
10047	2983	
10048	2982	
10049	2981	
10050	2981	
10051	2981	
10052	2981	
10053	2982	
10054	2981	
10055	2981	
10056	2980	
10057	2979	
10058	2979	
10059	2978	
10060	2978	
10061	2978	
10062	2978	
10063	2978	
10064	2978	
10065	2977	
10066	2977	
10067	2976	
10068	2976	
10069	2976	
10070	2975	
10071	2976	
10072	2975	
10073	2975	
10074	2976	
10075	2975	
10076	2976	
10077	2975	
10078	2974	
10079	2974	
10080	2974	
10081	2973	
10082	2972	
10083	2972	
10084	2972	
10085	2971	
10086	2971	
10087	2971	
10088	2972	
10089	2972	
10090	2972	
10091	2971	
10092	2971	
10093	2971	
10094	2971	
10095	2969	
10096	2970	
10097	2969	
10098	2968	
10099	2968	
10100	2969	
10101	2968	
10102	2968	
10103	2968	
10104	2967	
10105	2967	
10106	2968	
10107	2968	
10108	2968	
10109	2967	
10110	2966	
10111	2966	
10112	2966	
10113	2965	
10114	2966	
10115	2965	
10116	2965	
10117	2965	
10118	2964	
10119	2964	
10120	2963	
10121	2964	
10122	2963	
10123	2964	
10124	2964	
10125	2963	
10126	2964	
10127	2964	
10128	2963	
10129	2962	
10130	2961	
10131	2962	
10132	2961	
