# OpenSignals Text File Format
# {"20:15:12:22:81:69": {"sensor": ["RAW"], "device name": "20:15:12:22:81:69", "column": ["nSeq", "I1", "I2", "O1", "O2", "A1"], "sync interval": 2, "time": "16:40:34.519", "comments": "", "device connection": "/dev/tty.BITalino-DevB", "channels": [1], "date": "2016-6-17", "mode": 0, "digital IO": [0, 0, 1, 1], "firmware version": "5.0", "device": "bitalino", "position": 0, "sampling rate": 1000, "label": ["A1"], "resolution": [4, 1, 1, 1, 1, 10], "special": [{}]}}
# EndOfHeader
1	1	1	0	0	641	
2	1	1	0	0	641	
3	1	1	0	0	641	
4	1	1	0	0	640	
5	1	1	0	0	640	
6	1	1	0	0	639	
7	1	1	0	0	639	
8	1	1	0	0	639	
9	1	1	0	0	638	
10	1	1	0	0	638	
11	1	1	0	0	637	
12	1	1	0	0	636	
13	1	1	0	0	636	
14	1	1	0	0	635	
15	1	1	0	0	634	
0	1	1	0	0	633	
1	1	1	0	0	632	
2	1	1	0	0	632	
3	1	1	0	0	631	
4	1	1	0	0	630	
5	1	1	0	0	629	
6	1	1	0	0	628	
7	1	1	0	0	626	
8	1	1	0	0	625	
9	1	1	0	0	624	
10	1	1	0	0	623	
11	1	1	0	0	621	
12	1	1	0	0	620	
13	1	1	0	0	618	
14	1	1	0	0	618	
15	1	1	0	0	616	
0	1	1	0	0	615	
1	1	1	0	0	614	
2	1	1	0	0	613	
3	1	1	0	0	611	
4	1	1	0	0	610	
5	1	1	0	0	608	
6	1	1	0	0	607	
7	1	1	0	0	605	
8	1	1	0	0	604	
9	1	1	0	0	603	
10	1	1	0	0	601	
11	1	1	0	0	600	
12	1	1	0	0	598	
13	1	1	0	0	595	
14	1	1	0	0	594	
15	1	1	0	0	592	
0	1	1	0	0	591	
1	1	1	0	0	589	
2	1	1	0	0	588	
3	1	1	0	0	586	
4	1	1	0	0	585	
5	1	1	0	0	583	
6	1	1	0	0	581	
7	1	1	0	0	579	
8	1	1	0	0	577	
9	1	1	0	0	576	
10	1	1	0	0	574	
11	1	1	0	0	572	
12	1	1	0	0	571	
13	1	1	0	0	569	
14	1	1	0	0	567	
15	1	1	0	0	565	
0	1	1	0	0	563	
1	1	1	0	0	561	
2	1	1	0	0	560	
3	1	1	0	0	558	
4	1	1	0	0	557	
5	1	1	0	0	555	
6	1	1	0	0	553	
7	1	1	0	0	551	
8	1	1	0	0	549	
9	1	1	0	0	547	
10	1	1	0	0	546	
11	1	1	0	0	544	
12	1	1	0	0	542	
13	1	1	0	0	540	
14	1	1	0	0	539	
15	1	1	0	0	537	
0	1	1	0	0	536	
1	1	1	0	0	535	
2	1	1	0	0	532	
3	1	1	0	0	531	
4	1	1	0	0	529	
5	1	1	0	0	528	
6	1	1	0	0	526	
7	1	1	0	0	525	
8	1	1	0	0	523	
9	1	1	0	0	521	
10	1	1	0	0	520	
11	1	1	0	0	519	
12	1	1	0	0	517	
13	1	1	0	0	515	
14	1	1	0	0	514	
15	1	1	0	0	513	
0	1	1	0	0	511	
1	1	1	0	0	510	
2	1	1	0	0	508	
3	1	1	0	0	507	
4	1	1	0	0	506	
5	1	1	0	0	504	
6	1	1	0	0	503	
7	1	1	0	0	501	
8	1	1	0	0	500	
9	1	1	0	0	498	
10	1	1	0	0	496	
11	1	1	0	0	495	
12	1	1	0	0	494	
13	1	1	0	0	493	
14	1	1	0	0	491	
15	1	1	0	0	490	
0	1	1	0	0	489	
1	1	1	0	0	487	
2	1	1	0	0	486	
3	1	1	0	0	485	
4	1	1	0	0	483	
5	1	1	0	0	483	
6	1	1	0	0	481	
7	1	1	0	0	480	
8	1	1	0	0	480	
9	1	1	0	0	479	
10	1	1	0	0	478	
11	1	1	0	0	477	
12	1	1	0	0	475	
13	1	1	0	0	475	
14	1	1	0	0	473	
15	1	1	0	0	472	
0	1	1	0	0	472	
1	1	1	0	0	471	
2	1	1	0	0	471	
3	1	1	0	0	469	
4	1	1	0	0	469	
5	1	1	0	0	468	
6	1	1	0	0	467	
7	1	1	0	0	467	
8	1	1	0	0	465	
9	1	1	0	0	465	
10	1	1	0	0	464	
11	1	1	0	0	464	
12	1	1	0	0	463	
13	1	1	0	0	462	
14	1	1	0	0	462	
15	1	1	0	0	461	
0	1	1	0	0	461	
1	1	1	0	0	460	
2	1	1	0	0	460	
3	1	1	0	0	460	
4	1	1	0	0	459	
5	1	1	0	0	459	
6	1	1	0	0	458	
7	1	1	0	0	457	
8	1	1	0	0	457	
9	1	1	0	0	457	
10	1	1	0	0	457	
11	1	1	0	0	456	
12	1	1	0	0	456	
13	1	1	0	0	456	
14	1	1	0	0	455	
15	1	1	0	0	455	
0	1	1	0	0	455	
1	1	1	0	0	455	
2	1	1	0	0	455	
3	1	1	0	0	454	
4	1	1	0	0	454	
5	1	1	0	0	454	
6	1	1	0	0	455	
7	1	1	0	0	454	
8	1	1	0	0	454	
9	1	1	0	0	454	
10	1	1	0	0	455	
11	1	1	0	0	455	
12	1	1	0	0	455	
13	1	1	0	0	455	
14	1	1	0	0	455	
15	1	1	0	0	455	
0	1	1	0	0	455	
1	1	1	0	0	455	
2	1	1	0	0	455	
3	1	1	0	0	456	
4	1	1	0	0	456	
5	1	1	0	0	456	
6	1	1	0	0	456	
7	1	1	0	0	457	
8	1	1	0	0	457	
9	1	1	0	0	458	
10	1	1	0	0	459	
11	1	1	0	0	459	
12	1	1	0	0	459	
13	1	1	0	0	459	
14	1	1	0	0	460	
15	1	1	0	0	460	
0	1	1	0	0	460	
1	1	1	0	0	460	
2	1	1	0	0	460	
3	1	1	0	0	462	
4	1	1	0	0	461	
5	1	1	0	0	463	
6	1	1	0	0	463	
7	1	1	0	0	463	
8	1	1	0	0	464	
9	1	1	0	0	464	
10	1	1	0	0	465	
11	1	1	0	0	465	
12	1	1	0	0	466	
13	1	1	0	0	466	
14	1	1	0	0	467	
15	1	1	0	0	467	
0	1	1	0	0	468	
1	1	1	0	0	469	
2	1	1	0	0	470	
3	1	1	0	0	470	
4	1	1	0	0	471	
5	1	1	0	0	471	
6	1	1	0	0	472	
7	1	1	0	0	472	
8	1	1	0	0	473	
9	1	1	0	0	474	
10	1	1	0	0	475	
11	1	1	0	0	475	
12	1	1	0	0	476	
13	1	1	0	0	477	
14	1	1	0	0	477	
15	1	1	0	0	478	
0	1	1	0	0	478	
1	1	1	0	0	480	
2	1	1	0	0	480	
3	1	1	0	0	480	
4	1	1	0	0	481	
5	1	1	0	0	482	
6	1	1	0	0	483	
7	1	1	0	0	483	
8	1	1	0	0	484	
9	1	1	0	0	484	
10	1	1	0	0	485	
11	1	1	0	0	486	
12	1	1	0	0	486	
13	1	1	0	0	486	
14	1	1	0	0	487	
15	1	1	0	0	487	
0	1	1	0	0	489	
1	1	1	0	0	489	
2	1	1	0	0	489	
3	1	1	0	0	491	
4	1	1	0	0	491	
5	1	1	0	0	491	
6	1	1	0	0	492	
7	1	1	0	0	493	
8	1	1	0	0	493	
9	1	1	0	0	494	
10	1	1	0	0	495	
11	1	1	0	0	496	
12	1	1	0	0	496	
13	1	1	0	0	496	
14	1	1	0	0	496	
15	1	1	0	0	497	
0	1	1	0	0	497	
1	1	1	0	0	498	
2	1	1	0	0	498	
3	1	1	0	0	499	
4	1	1	0	0	500	
5	1	1	0	0	500	
6	1	1	0	0	500	
7	1	1	0	0	501	
8	1	1	0	0	501	
9	1	1	0	0	502	
10	1	1	0	0	502	
11	1	1	0	0	502	
12	1	1	0	0	503	
13	1	1	0	0	503	
14	1	1	0	0	503	
15	1	1	0	0	504	
0	1	1	0	0	504	
1	1	1	0	0	504	
2	1	1	0	0	504	
3	1	1	0	0	505	
4	1	1	0	0	505	
5	1	1	0	0	505	
6	1	1	0	0	505	
7	1	1	0	0	505	
8	1	1	0	0	506	
9	1	1	0	0	506	
10	1	1	0	0	507	
11	1	1	0	0	507	
12	1	1	0	0	507	
13	1	1	0	0	507	
14	1	1	0	0	508	
15	1	1	0	0	508	
0	1	1	0	0	507	
1	1	1	0	0	508	
2	1	1	0	0	508	
3	1	1	0	0	508	
4	1	1	0	0	508	
5	1	1	0	0	508	
6	1	1	0	0	508	
7	1	1	0	0	508	
8	1	1	0	0	509	
9	1	1	0	0	509	
10	1	1	0	0	509	
11	1	1	0	0	509	
12	1	1	0	0	508	
13	1	1	0	0	509	
14	1	1	0	0	508	
15	1	1	0	0	509	
0	1	1	0	0	509	
1	1	1	0	0	509	
2	1	1	0	0	510	
3	1	1	0	0	510	
4	1	1	0	0	510	
5	1	1	0	0	510	
6	1	1	0	0	510	
7	1	1	0	0	510	
8	1	1	0	0	510	
9	1	1	0	0	510	
10	1	1	0	0	510	
11	1	1	0	0	510	
12	1	1	0	0	511	
13	1	1	0	0	511	
14	1	1	0	0	511	
15	1	1	0	0	510	
0	1	1	0	0	511	
1	1	1	0	0	510	
2	1	1	0	0	511	
3	1	1	0	0	510	
4	1	1	0	0	510	
5	1	1	0	0	511	
6	1	1	0	0	510	
7	1	1	0	0	511	
8	1	1	0	0	511	
9	1	1	0	0	511	
10	1	1	0	0	511	
11	1	1	0	0	511	
12	1	1	0	0	511	
13	1	1	0	0	510	
14	1	1	0	0	511	
15	1	1	0	0	511	
0	1	1	0	0	511	
1	1	1	0	0	511	
2	1	1	0	0	511	
3	1	1	0	0	510	
4	1	1	0	0	511	
5	1	1	0	0	511	
6	1	1	0	0	511	
7	1	1	0	0	511	
8	1	1	0	0	511	
9	1	1	0	0	511	
10	1	1	0	0	511	
11	1	1	0	0	511	
12	1	1	0	0	511	
13	1	1	0	0	511	
14	1	1	0	0	511	
15	1	1	0	0	511	
0	1	1	0	0	512	
1	1	1	0	0	512	
2	1	1	0	0	512	
3	1	1	0	0	512	
4	1	1	0	0	512	
5	1	1	0	0	511	
6	1	1	0	0	512	
7	1	1	0	0	512	
8	1	1	0	0	512	
9	1	1	0	0	512	
10	1	1	0	0	512	
11	1	1	0	0	512	
12	1	1	0	0	512	
13	1	1	0	0	512	
14	1	1	0	0	511	
15	1	1	0	0	512	
0	1	1	0	0	512	
1	1	1	0	0	512	
2	1	1	0	0	512	
3	1	1	0	0	512	
4	1	1	0	0	512	
5	1	1	0	0	512	
6	1	1	0	0	512	
7	1	1	0	0	512	
8	1	1	0	0	511	
9	1	1	0	0	511	
10	1	1	0	0	511	
11	1	1	0	0	511	
12	1	1	0	0	511	
13	1	1	0	0	512	
14	1	1	0	0	511	
15	1	1	0	0	512	
0	1	1	0	0	512	
1	1	1	0	0	512	
2	1	1	0	0	511	
3	1	1	0	0	511	
4	1	1	0	0	511	
5	1	1	0	0	511	
6	1	1	0	0	511	
7	1	1	0	0	511	
8	1	1	0	0	511	
9	1	1	0	0	511	
10	1	1	0	0	511	
11	1	1	0	0	511	
12	1	1	0	0	510	
13	1	1	0	0	510	
14	1	1	0	0	510	
15	1	1	0	0	510	
0	1	1	0	0	510	
1	1	1	0	0	510	
2	1	1	0	0	511	
3	1	1	0	0	510	
4	1	1	0	0	510	
5	1	1	0	0	510	
6	1	1	0	0	510	
7	1	1	0	0	510	
8	1	1	0	0	509	
9	1	1	0	0	510	
10	1	1	0	0	509	
11	1	1	0	0	509	
12	1	1	0	0	509	
13	1	1	0	0	509	
14	1	1	0	0	509	
15	1	1	0	0	509	
0	1	1	0	0	508	
1	1	1	0	0	509	
2	1	1	0	0	508	
3	1	1	0	0	508	
4	1	1	0	0	508	
5	1	1	0	0	508	
6	1	1	0	0	508	
7	1	1	0	0	508	
8	1	1	0	0	508	
9	1	1	0	0	508	
10	1	1	0	0	507	
11	1	1	0	0	508	
12	1	1	0	0	507	
13	1	1	0	0	508	
14	1	1	0	0	507	
15	1	1	0	0	507	
0	1	1	0	0	507	
1	1	1	0	0	507	
2	1	1	0	0	506	
3	1	1	0	0	507	
4	1	1	0	0	507	
5	1	1	0	0	506	
6	1	1	0	0	506	
7	1	1	0	0	506	
8	1	1	0	0	506	
9	1	1	0	0	506	
10	1	1	0	0	506	
11	1	1	0	0	506	
12	1	1	0	0	506	
13	1	1	0	0	506	
14	1	1	0	0	506	
15	1	1	0	0	506	
0	1	1	0	0	506	
1	1	1	0	0	506	
2	1	1	0	0	506	
3	1	1	0	0	506	
4	1	1	0	0	506	
5	1	1	0	0	506	
6	1	1	0	0	505	
7	1	1	0	0	506	
8	1	1	0	0	506	
9	1	1	0	0	505	
10	1	1	0	0	507	
11	1	1	0	0	507	
12	1	1	0	0	507	
13	1	1	0	0	507	
14	1	1	0	0	507	
15	1	1	0	0	508	
0	1	1	0	0	507	
1	1	1	0	0	508	
2	1	1	0	0	508	
3	1	1	0	0	509	
4	1	1	0	0	509	
5	1	1	0	0	510	
6	1	1	0	0	511	
7	1	1	0	0	510	
8	1	1	0	0	511	
9	1	1	0	0	511	
10	1	1	0	0	512	
11	1	1	0	0	513	
12	1	1	0	0	513	
13	1	1	0	0	514	
14	1	1	0	0	515	
15	1	1	0	0	515	
0	1	1	0	0	516	
1	1	1	0	0	517	
2	1	1	0	0	518	
3	1	1	0	0	519	
4	1	1	0	0	519	
5	1	1	0	0	521	
6	1	1	0	0	521	
7	1	1	0	0	523	
8	1	1	0	0	524	
9	1	1	0	0	525	
10	1	1	0	0	526	
11	1	1	0	0	527	
12	1	1	0	0	528	
13	1	1	0	0	529	
14	1	1	0	0	530	
15	1	1	0	0	531	
0	1	1	0	0	532	
1	1	1	0	0	534	
2	1	1	0	0	536	
3	1	1	0	0	537	
4	1	1	0	0	539	
5	1	1	0	0	540	
6	1	1	0	0	541	
7	1	1	0	0	542	
8	1	1	0	0	543	
9	1	1	0	0	545	
10	1	1	0	0	545	
11	1	1	0	0	547	
12	1	1	0	0	548	
13	1	1	0	0	550	
14	1	1	0	0	551	
15	1	1	0	0	553	
0	1	1	0	0	554	
1	1	1	0	0	556	
2	1	1	0	0	556	
3	1	1	0	0	558	
4	1	1	0	0	559	
5	1	1	0	0	560	
6	1	1	0	0	561	
7	1	1	0	0	562	
8	1	1	0	0	564	
9	1	1	0	0	566	
10	1	1	0	0	567	
11	1	1	0	0	568	
12	1	1	0	0	568	
13	1	1	0	0	570	
14	1	1	0	0	571	
15	1	1	0	0	572	
0	1	1	0	0	574	
1	1	1	0	0	574	
2	1	1	0	0	576	
3	1	1	0	0	577	
4	1	1	0	0	578	
5	1	1	0	0	579	
6	1	1	0	0	579	
7	1	1	0	0	582	
8	1	1	0	0	583	
9	1	1	0	0	584	
10	1	1	0	0	585	
11	1	1	0	0	585	
12	1	1	0	0	587	
13	1	1	0	0	588	
14	1	1	0	0	589	
15	1	1	0	0	590	
0	1	1	0	0	590	
1	1	1	0	0	591	
2	1	1	0	0	592	
3	1	1	0	0	593	
4	1	1	0	0	593	
5	1	1	0	0	594	
6	1	1	0	0	595	
7	1	1	0	0	596	
8	1	1	0	0	597	
9	1	1	0	0	598	
10	1	1	0	0	599	
11	1	1	0	0	599	
12	1	1	0	0	600	
13	1	1	0	0	600	
14	1	1	0	0	600	
15	1	1	0	0	601	
0	1	1	0	0	602	
1	1	1	0	0	603	
2	1	1	0	0	602	
3	1	1	0	0	603	
4	1	1	0	0	603	
5	1	1	0	0	604	
6	1	1	0	0	604	
7	1	1	0	0	605	
8	1	1	0	0	605	
9	1	1	0	0	605	
10	1	1	0	0	605	
11	1	1	0	0	605	
12	1	1	0	0	605	
13	1	1	0	0	605	
14	1	1	0	0	605	
15	1	1	0	0	606	
0	1	1	0	0	606	
1	1	1	0	0	605	
2	1	1	0	0	605	
3	1	1	0	0	604	
4	1	1	0	0	605	
5	1	1	0	0	604	
6	1	1	0	0	604	
7	1	1	0	0	604	
8	1	1	0	0	604	
9	1	1	0	0	604	
10	1	1	0	0	602	
11	1	1	0	0	602	
12	1	1	0	0	602	
13	1	1	0	0	601	
14	1	1	0	0	601	
15	1	1	0	0	600	
0	1	1	0	0	600	
1	1	1	0	0	600	
2	1	1	0	0	599	
3	1	1	0	0	599	
4	1	1	0	0	598	
5	1	1	0	0	597	
6	1	1	0	0	596	
7	1	1	0	0	595	
8	1	1	0	0	595	
9	1	1	0	0	594	
10	1	1	0	0	594	
11	1	1	0	0	592	
12	1	1	0	0	592	
13	1	1	0	0	591	
14	1	1	0	0	590	
15	1	1	0	0	589	
0	1	1	0	0	588	
1	1	1	0	0	587	
2	1	1	0	0	587	
3	1	1	0	0	585	
4	1	1	0	0	584	
5	1	1	0	0	583	
6	1	1	0	0	582	
7	1	1	0	0	582	
8	1	1	0	0	580	
9	1	1	0	0	580	
10	1	1	0	0	578	
11	1	1	0	0	577	
12	1	1	0	0	576	
13	1	1	0	0	575	
14	1	1	0	0	574	
15	1	1	0	0	572	
0	1	1	0	0	571	
1	1	1	0	0	571	
2	1	1	0	0	569	
3	1	1	0	0	568	
4	1	1	0	0	567	
5	1	1	0	0	565	
6	1	1	0	0	564	
7	1	1	0	0	563	
8	1	1	0	0	561	
9	1	1	0	0	560	
10	1	1	0	0	559	
11	1	1	0	0	558	
12	1	1	0	0	556	
13	1	1	0	0	555	
14	1	1	0	0	553	
15	1	1	0	0	552	
0	1	1	0	0	551	
1	1	1	0	0	550	
2	1	1	0	0	548	
3	1	1	0	0	547	
4	1	1	0	0	546	
5	1	1	0	0	545	
6	1	1	0	0	543	
7	1	1	0	0	542	
8	1	1	0	0	541	
9	1	1	0	0	540	
10	1	1	0	0	539	
11	1	1	0	0	537	
12	1	1	0	0	536	
13	1	1	0	0	534	
14	1	1	0	0	533	
15	1	1	0	0	531	
0	1	1	0	0	531	
1	1	1	0	0	529	
2	1	1	0	0	528	
3	1	1	0	0	526	
4	1	1	0	0	526	
5	1	1	0	0	524	
6	1	1	0	0	523	
7	1	1	0	0	522	
8	1	1	0	0	520	
9	1	1	0	0	519	
10	1	1	0	0	518	
11	1	1	0	0	516	
12	1	1	0	0	515	
13	1	1	0	0	513	
14	1	1	0	0	513	
15	1	1	0	0	511	
0	1	1	0	0	510	
1	1	1	0	0	509	
2	1	1	0	0	508	
3	1	1	0	0	507	
4	1	1	0	0	505	
5	1	1	0	0	505	
6	1	1	0	0	503	
7	1	1	0	0	502	
8	1	1	0	0	501	
9	1	1	0	0	500	
10	1	1	0	0	499	
11	1	1	0	0	498	
12	1	1	0	0	497	
13	1	1	0	0	496	
14	1	1	0	0	495	
15	1	1	0	0	494	
0	1	1	0	0	493	
1	1	1	0	0	492	
2	1	1	0	0	492	
3	1	1	0	0	491	
4	1	1	0	0	490	
5	1	1	0	0	489	
6	1	1	0	0	487	
7	1	1	0	0	487	
8	1	1	0	0	486	
9	1	1	0	0	485	
10	1	1	0	0	485	
11	1	1	0	0	484	
12	1	1	0	0	484	
13	1	1	0	0	482	
14	1	1	0	0	481	
15	1	1	0	0	481	
0	1	1	0	0	480	
1	1	1	0	0	480	
2	1	1	0	0	479	
3	1	1	0	0	478	
4	1	1	0	0	478	
5	1	1	0	0	477	
6	1	1	0	0	476	
7	1	1	0	0	476	
8	1	1	0	0	475	
9	1	1	0	0	475	
10	1	1	0	0	474	
11	1	1	0	0	474	
12	1	1	0	0	473	
13	1	1	0	0	473	
14	1	1	0	0	472	
15	1	1	0	0	472	
0	1	1	0	0	471	
1	1	1	0	0	471	
2	1	1	0	0	471	
3	1	1	0	0	471	
4	1	1	0	0	471	
5	1	1	0	0	471	
6	1	1	0	0	470	
7	1	1	0	0	470	
8	1	1	0	0	470	
9	1	1	0	0	470	
10	1	1	0	0	469	
11	1	1	0	0	469	
12	1	1	0	0	469	
13	1	1	0	0	469	
14	1	1	0	0	469	
15	1	1	0	0	470	
0	1	1	0	0	469	
1	1	1	0	0	469	
2	1	1	0	0	470	
3	1	1	0	0	469	
4	1	1	0	0	470	
5	1	1	0	0	468	
6	1	1	0	0	469	
7	1	1	0	0	469	
8	1	1	0	0	470	
9	1	1	0	0	469	
10	1	1	0	0	470	
11	1	1	0	0	470	
12	1	1	0	0	470	
13	1	1	0	0	470	
14	1	1	0	0	470	
15	1	1	0	0	470	
0	1	1	0	0	470	
1	1	1	0	0	471	
2	1	1	0	0	471	
3	1	1	0	0	472	
4	1	1	0	0	471	
5	1	1	0	0	471	
6	1	1	0	0	472	
7	1	1	0	0	472	
8	1	1	0	0	472	
9	1	1	0	0	472	
10	1	1	0	0	473	
11	1	1	0	0	474	
12	1	1	0	0	473	
13	1	1	0	0	474	
14	1	1	0	0	475	
15	1	1	0	0	475	
0	1	1	0	0	475	
1	1	1	0	0	475	
2	1	1	0	0	476	
3	1	1	0	0	476	
4	1	1	0	0	476	
5	1	1	0	0	476	
6	1	1	0	0	477	
7	1	1	0	0	478	
8	1	1	0	0	478	
9	1	1	0	0	479	
10	1	1	0	0	479	
11	1	1	0	0	479	
12	1	1	0	0	480	
13	1	1	0	0	480	
14	1	1	0	0	480	
15	1	1	0	0	481	
0	1	1	0	0	481	
1	1	1	0	0	482	
2	1	1	0	0	482	
3	1	1	0	0	482	
4	1	1	0	0	483	
5	1	1	0	0	484	
6	1	1	0	0	484	
7	1	1	0	0	485	
8	1	1	0	0	485	
9	1	1	0	0	486	
10	1	1	0	0	486	
11	1	1	0	0	486	
12	1	1	0	0	487	
13	1	1	0	0	487	
14	1	1	0	0	488	
15	1	1	0	0	488	
0	1	1	0	0	488	
1	1	1	0	0	489	
2	1	1	0	0	489	
3	1	1	0	0	489	
4	1	1	0	0	490	
5	1	1	0	0	491	
6	1	1	0	0	492	
7	1	1	0	0	492	
8	1	1	0	0	492	
9	1	1	0	0	493	
10	1	1	0	0	494	
11	1	1	0	0	494	
12	1	1	0	0	494	
13	1	1	0	0	495	
14	1	1	0	0	495	
15	1	1	0	0	496	
0	1	1	0	0	496	
1	1	1	0	0	496	
2	1	1	0	0	497	
3	1	1	0	0	497	
4	1	1	0	0	498	
5	1	1	0	0	498	
6	1	1	0	0	499	
7	1	1	0	0	499	
8	1	1	0	0	499	
9	1	1	0	0	500	
10	1	1	0	0	500	
11	1	1	0	0	501	
12	1	1	0	0	501	
13	1	1	0	0	501	
14	1	1	0	0	502	
15	1	1	0	0	501	
0	1	1	0	0	502	
1	1	1	0	0	502	
2	1	1	0	0	503	
3	1	1	0	0	503	
4	1	1	0	0	504	
5	1	1	0	0	503	
6	1	1	0	0	504	
7	1	1	0	0	504	
8	1	1	0	0	504	
9	1	1	0	0	504	
10	1	1	0	0	505	
11	1	1	0	0	505	
12	1	1	0	0	505	
13	1	1	0	0	506	
14	1	1	0	0	505	
15	1	1	0	0	505	
0	1	1	0	0	506	
1	1	1	0	0	506	
2	1	1	0	0	506	
3	1	1	0	0	507	
4	1	1	0	0	507	
5	1	1	0	0	507	
6	1	1	0	0	507	
7	1	1	0	0	508	
8	1	1	0	0	508	
9	1	1	0	0	508	
10	1	1	0	0	508	
11	1	1	0	0	508	
12	1	1	0	0	508	
13	1	1	0	0	508	
14	1	1	0	0	508	
15	1	1	0	0	509	
0	1	1	0	0	508	
1	1	1	0	0	509	
2	1	1	0	0	509	
3	1	1	0	0	509	
4	1	1	0	0	510	
5	1	1	0	0	509	
6	1	1	0	0	510	
7	1	1	0	0	510	
8	1	1	0	0	509	
9	1	1	0	0	509	
10	1	1	0	0	509	
11	1	1	0	0	509	
12	1	1	0	0	509	
13	1	1	0	0	509	
14	1	1	0	0	509	
15	1	1	0	0	509	
0	1	1	0	0	509	
1	1	1	0	0	509	
2	1	1	0	0	509	
3	1	1	0	0	508	
4	1	1	0	0	508	
5	1	1	0	0	508	
6	1	1	0	0	508	
7	1	1	0	0	508	
8	1	1	0	0	508	
9	1	1	0	0	508	
10	1	1	0	0	508	
11	1	1	0	0	508	
12	1	1	0	0	508	
13	1	1	0	0	508	
14	1	1	0	0	508	
15	1	1	0	0	508	
0	1	1	0	0	508	
1	1	1	0	0	508	
2	1	1	0	0	508	
3	1	1	0	0	508	
4	1	1	0	0	508	
5	1	1	0	0	508	
6	1	1	0	0	508	
7	1	1	0	0	508	
8	1	1	0	0	507	
9	1	1	0	0	508	
10	1	1	0	0	508	
11	1	1	0	0	508	
12	1	1	0	0	508	
13	1	1	0	0	508	
14	1	1	0	0	507	
15	1	1	0	0	507	
0	1	1	0	0	507	
1	1	1	0	0	507	
2	1	1	0	0	507	
3	1	1	0	0	507	
4	1	1	0	0	507	
5	1	1	0	0	507	
6	1	1	0	0	507	
7	1	1	0	0	506	
8	1	1	0	0	506	
9	1	1	0	0	507	
10	1	1	0	0	507	
11	1	1	0	0	507	
12	1	1	0	0	505	
13	1	1	0	0	506	
14	1	1	0	0	505	
15	1	1	0	0	506	
0	1	1	0	0	505	
1	1	1	0	0	505	
2	1	1	0	0	505	
3	1	1	0	0	504	
4	1	1	0	0	504	
5	1	1	0	0	504	
6	1	1	0	0	504	
7	1	1	0	0	504	
8	1	1	0	0	504	
9	1	1	0	0	504	
10	1	1	0	0	504	
11	1	1	0	0	503	
12	1	1	0	0	504	
13	1	1	0	0	503	
14	1	1	0	0	503	
15	1	1	0	0	503	
0	1	1	0	0	502	
1	1	1	0	0	502	
2	1	1	0	0	502	
3	1	1	0	0	501	
4	1	1	0	0	502	
5	1	1	0	0	502	
6	1	1	0	0	502	
7	1	1	0	0	502	
8	1	1	0	0	501	
9	1	1	0	0	502	
10	1	1	0	0	501	
11	1	1	0	0	501	
12	1	1	0	0	501	
13	1	1	0	0	501	
14	1	1	0	0	500	
15	1	1	0	0	501	
0	1	1	0	0	500	
1	1	1	0	0	500	
2	1	1	0	0	500	
3	1	1	0	0	499	
4	1	1	0	0	499	
5	1	1	0	0	499	
6	1	1	0	0	499	
7	1	1	0	0	499	
8	1	1	0	0	499	
9	1	1	0	0	499	
10	1	1	0	0	499	
11	1	1	0	0	499	
12	1	1	0	0	499	
13	1	1	0	0	499	
14	1	1	0	0	498	
15	1	1	0	0	498	
0	1	1	0	0	498	
1	1	1	0	0	498	
2	1	1	0	0	499	
3	1	1	0	0	497	
4	1	1	0	0	498	
5	1	1	0	0	497	
6	1	1	0	0	497	
7	1	1	0	0	498	
8	1	1	0	0	498	
9	1	1	0	0	498	
10	1	1	0	0	498	
11	1	1	0	0	498	
12	1	1	0	0	498	
13	1	1	0	0	498	
14	1	1	0	0	498	
15	1	1	0	0	498	
0	1	1	0	0	498	
1	1	1	0	0	499	
2	1	1	0	0	499	
3	1	1	0	0	499	
4	1	1	0	0	499	
5	1	1	0	0	498	
6	1	1	0	0	499	
7	1	1	0	0	499	
8	1	1	0	0	498	
9	1	1	0	0	499	
10	1	1	0	0	498	
11	1	1	0	0	498	
12	1	1	0	0	499	
13	1	1	0	0	499	
14	1	1	0	0	499	
15	1	1	0	0	499	
0	1	1	0	0	499	
1	1	1	0	0	499	
2	1	1	0	0	500	
3	1	1	0	0	499	
4	1	1	0	0	500	
5	1	1	0	0	500	
6	1	1	0	0	500	
7	1	1	0	0	500	
8	1	1	0	0	501	
9	1	1	0	0	500	
10	1	1	0	0	500	
11	1	1	0	0	501	
12	1	1	0	0	502	
13	1	1	0	0	502	
14	1	1	0	0	503	
15	1	1	0	0	503	
0	1	1	0	0	503	
1	1	1	0	0	503	
2	1	1	0	0	504	
3	1	1	0	0	504	
4	1	1	0	0	505	
5	1	1	0	0	505	
6	1	1	0	0	505	
7	1	1	0	0	506	
8	1	1	0	0	506	
9	1	1	0	0	506	
10	1	1	0	0	508	
11	1	1	0	0	508	
12	1	1	0	0	508	
13	1	1	0	0	510	
14	1	1	0	0	510	
15	1	1	0	0	510	
0	1	1	0	0	511	
1	1	1	0	0	512	
2	1	1	0	0	513	
3	1	1	0	0	515	
4	1	1	0	0	515	
5	1	1	0	0	516	
6	1	1	0	0	517	
7	1	1	0	0	518	
8	1	1	0	0	519	
9	1	1	0	0	520	
10	1	1	0	0	521	
11	1	1	0	0	522	
12	1	1	0	0	523	
13	1	1	0	0	524	
14	1	1	0	0	526	
15	1	1	0	0	527	
0	1	1	0	0	527	
1	1	1	0	0	529	
2	1	1	0	0	531	
3	1	1	0	0	532	
4	1	1	0	0	533	
5	1	1	0	0	535	
6	1	1	0	0	536	
7	1	1	0	0	537	
8	1	1	0	0	539	
9	1	1	0	0	540	
10	1	1	0	0	541	
11	1	1	0	0	543	
12	1	1	0	0	544	
13	1	1	0	0	545	
14	1	1	0	0	547	
15	1	1	0	0	548	
0	1	1	0	0	549	
1	1	1	0	0	551	
2	1	1	0	0	552	
3	1	1	0	0	554	
4	1	1	0	0	555	
5	1	1	0	0	557	
6	1	1	0	0	559	
7	1	1	0	0	560	
8	1	1	0	0	562	
9	1	1	0	0	563	
10	1	1	0	0	565	
11	1	1	0	0	566	
12	1	1	0	0	568	
13	1	1	0	0	570	
14	1	1	0	0	571	
15	1	1	0	0	573	
0	1	1	0	0	574	
1	1	1	0	0	575	
2	1	1	0	0	578	
3	1	1	0	0	579	
4	1	1	0	0	581	
5	1	1	0	0	583	
6	1	1	0	0	583	
7	1	1	0	0	585	
8	1	1	0	0	586	
9	1	1	0	0	588	
10	1	1	0	0	589	
11	1	1	0	0	591	
12	1	1	0	0	592	
13	1	1	0	0	593	
14	1	1	0	0	595	
15	1	1	0	0	596	
0	1	1	0	0	598	
1	1	1	0	0	599	
2	1	1	0	0	600	
3	1	1	0	0	601	
4	1	1	0	0	602	
5	1	1	0	0	603	
6	1	1	0	0	604	
7	1	1	0	0	605	
8	1	1	0	0	607	
9	1	1	0	0	608	
10	1	1	0	0	608	
11	1	1	0	0	609	
12	1	1	0	0	610	
13	1	1	0	0	611	
14	1	1	0	0	612	
15	1	1	0	0	612	
0	1	1	0	0	613	
1	1	1	0	0	614	
2	1	1	0	0	615	
3	1	1	0	0	615	
4	1	1	0	0	616	
5	1	1	0	0	617	
6	1	1	0	0	618	
7	1	1	0	0	618	
8	1	1	0	0	619	
9	1	1	0	0	620	
10	1	1	0	0	620	
11	1	1	0	0	620	
12	1	1	0	0	620	
13	1	1	0	0	621	
14	1	1	0	0	621	
15	1	1	0	0	622	
0	1	1	0	0	621	
1	1	1	0	0	621	
2	1	1	0	0	622	
3	1	1	0	0	622	
4	1	1	0	0	622	
5	1	1	0	0	622	
6	1	1	0	0	621	
7	1	1	0	0	621	
8	1	1	0	0	621	
9	1	1	0	0	621	
10	1	1	0	0	620	
11	1	1	0	0	620	
12	1	1	0	0	620	
13	1	1	0	0	620	
14	1	1	0	0	620	
15	1	1	0	0	619	
0	1	1	0	0	619	
1	1	1	0	0	618	
2	1	1	0	0	617	
3	1	1	0	0	617	
4	1	1	0	0	616	
5	1	1	0	0	615	
6	1	1	0	0	615	
7	1	1	0	0	614	
8	1	1	0	0	614	
9	1	1	0	0	613	
10	1	1	0	0	611	
11	1	1	0	0	611	
12	1	1	0	0	610	
13	1	1	0	0	609	
14	1	1	0	0	608	
15	1	1	0	0	607	
0	1	1	0	0	606	
1	1	1	0	0	604	
2	1	1	0	0	604	
3	1	1	0	0	603	
4	1	1	0	0	601	
5	1	1	0	0	601	
6	1	1	0	0	600	
7	1	1	0	0	598	
8	1	1	0	0	596	
9	1	1	0	0	595	
10	1	1	0	0	593	
11	1	1	0	0	593	
12	1	1	0	0	591	
13	1	1	0	0	590	
14	1	1	0	0	589	
15	1	1	0	0	588	
0	1	1	0	0	587	
1	1	1	0	0	585	
2	1	1	0	0	583	
3	1	1	0	0	582	
4	1	1	0	0	581	
5	1	1	0	0	579	
6	1	1	0	0	579	
7	1	1	0	0	577	
8	1	1	0	0	575	
9	1	1	0	0	574	
10	1	1	0	0	572	
11	1	1	0	0	572	
12	1	1	0	0	570	
13	1	1	0	0	569	
14	1	1	0	0	567	
15	1	1	0	0	565	
0	1	1	0	0	565	
1	1	1	0	0	563	
2	1	1	0	0	561	
3	1	1	0	0	560	
4	1	1	0	0	558	
5	1	1	0	0	557	
6	1	1	0	0	556	
7	1	1	0	0	554	
8	1	1	0	0	552	
9	1	1	0	0	550	
10	1	1	0	0	550	
11	1	1	0	0	548	
12	1	1	0	0	547	
13	1	1	0	0	545	
14	1	1	0	0	543	
15	1	1	0	0	543	
0	1	1	0	0	541	
1	1	1	0	0	540	
2	1	1	0	0	539	
3	1	1	0	0	537	
4	1	1	0	0	536	
5	1	1	0	0	534	
6	1	1	0	0	533	
7	1	1	0	0	531	
8	1	1	0	0	530	
9	1	1	0	0	528	
10	1	1	0	0	527	
11	1	1	0	0	527	
12	1	1	0	0	525	
13	1	1	0	0	524	
14	1	1	0	0	523	
15	1	1	0	0	521	
0	1	1	0	0	519	
1	1	1	0	0	519	
2	1	1	0	0	518	
3	1	1	0	0	516	
4	1	1	0	0	514	
5	1	1	0	0	513	
6	1	1	0	0	512	
7	1	1	0	0	511	
8	1	1	0	0	510	
9	1	1	0	0	508	
10	1	1	0	0	507	
11	1	1	0	0	506	
12	1	1	0	0	505	
13	1	1	0	0	504	
14	1	1	0	0	503	
15	1	1	0	0	502	
0	1	1	0	0	501	
1	1	1	0	0	499	
2	1	1	0	0	498	
3	1	1	0	0	497	
4	1	1	0	0	496	
5	1	1	0	0	496	
6	1	1	0	0	495	
7	1	1	0	0	494	
8	1	1	0	0	493	
9	1	1	0	0	492	
10	1	1	0	0	491	
11	1	1	0	0	489	
12	1	1	0	0	489	
13	1	1	0	0	487	
14	1	1	0	0	487	
15	1	1	0	0	486	
0	1	1	0	0	486	
1	1	1	0	0	485	
2	1	1	0	0	484	
3	1	1	0	0	483	
4	1	1	0	0	483	
5	1	1	0	0	482	
6	1	1	0	0	481	
7	1	1	0	0	481	
8	1	1	0	0	480	
9	1	1	0	0	480	
10	1	1	0	0	479	
11	1	1	0	0	478	
12	1	1	0	0	478	
13	1	1	0	0	478	
14	1	1	0	0	477	
15	1	1	0	0	476	
0	1	1	0	0	476	
1	1	1	0	0	476	
2	1	1	0	0	476	
3	1	1	0	0	475	
4	1	1	0	0	475	
5	1	1	0	0	475	
6	1	1	0	0	474	
7	1	1	0	0	473	
8	1	1	0	0	473	
9	1	1	0	0	473	
10	1	1	0	0	473	
11	1	1	0	0	473	
12	1	1	0	0	473	
13	1	1	0	0	472	
14	1	1	0	0	472	
15	1	1	0	0	472	
0	1	1	0	0	472	
1	1	1	0	0	472	
2	1	1	0	0	472	
3	1	1	0	0	472	
4	1	1	0	0	472	
5	1	1	0	0	472	
6	1	1	0	0	472	
7	1	1	0	0	472	
8	1	1	0	0	472	
9	1	1	0	0	472	
10	1	1	0	0	473	
11	1	1	0	0	473	
12	1	1	0	0	472	
13	1	1	0	0	473	
14	1	1	0	0	473	
15	1	1	0	0	473	
0	1	1	0	0	473	
1	1	1	0	0	474	
2	1	1	0	0	474	
3	1	1	0	0	475	
4	1	1	0	0	475	
5	1	1	0	0	475	
6	1	1	0	0	475	
7	1	1	0	0	475	
8	1	1	0	0	476	
9	1	1	0	0	476	
10	1	1	0	0	476	
11	1	1	0	0	477	
12	1	1	0	0	477	
13	1	1	0	0	478	
14	1	1	0	0	478	
15	1	1	0	0	478	
0	1	1	0	0	478	
1	1	1	0	0	479	
2	1	1	0	0	479	
3	1	1	0	0	480	
4	1	1	0	0	480	
5	1	1	0	0	480	
6	1	1	0	0	480	
7	1	1	0	0	481	
8	1	1	0	0	481	
9	1	1	0	0	482	
10	1	1	0	0	483	
11	1	1	0	0	483	
12	1	1	0	0	483	
13	1	1	0	0	484	
14	1	1	0	0	485	
15	1	1	0	0	485	
0	1	1	0	0	485	
1	1	1	0	0	486	
2	1	1	0	0	486	
3	1	1	0	0	487	
4	1	1	0	0	487	
5	1	1	0	0	488	
6	1	1	0	0	489	
7	1	1	0	0	490	
8	1	1	0	0	490	
9	1	1	0	0	490	
10	1	1	0	0	491	
11	1	1	0	0	492	
12	1	1	0	0	492	
13	1	1	0	0	492	
14	1	1	0	0	494	
15	1	1	0	0	494	
0	1	1	0	0	495	
1	1	1	0	0	496	
2	1	1	0	0	496	
3	1	1	0	0	497	
4	1	1	0	0	498	
5	1	1	0	0	498	
6	1	1	0	0	499	
7	1	1	0	0	499	
8	1	1	0	0	499	
9	1	1	0	0	500	
10	1	1	0	0	501	
11	1	1	0	0	501	
12	1	1	0	0	502	
13	1	1	0	0	503	
14	1	1	0	0	503	
15	1	1	0	0	504	
0	1	1	0	0	504	
1	1	1	0	0	505	
2	1	1	0	0	505	
3	1	1	0	0	505	
4	1	1	0	0	506	
5	1	1	0	0	507	
6	1	1	0	0	507	
7	1	1	0	0	508	
8	1	1	0	0	509	
9	1	1	0	0	509	
10	1	1	0	0	510	
11	1	1	0	0	511	
12	1	1	0	0	510	
13	1	1	0	0	511	
14	1	1	0	0	511	
15	1	1	0	0	512	
0	1	1	0	0	512	
1	1	1	0	0	512	
2	1	1	0	0	513	
3	1	1	0	0	513	
4	1	1	0	0	514	
5	1	1	0	0	514	
6	1	1	0	0	514	
7	1	1	0	0	515	
8	1	1	0	0	515	
9	1	1	0	0	515	
10	1	1	0	0	516	
11	1	1	0	0	516	
12	1	1	0	0	516	
13	1	1	0	0	517	
14	1	1	0	0	517	
15	1	1	0	0	518	
0	1	1	0	0	518	
1	1	1	0	0	518	
2	1	1	0	0	518	
3	1	1	0	0	518	
4	1	1	0	0	519	
5	1	1	0	0	519	
6	1	1	0	0	519	
7	1	1	0	0	519	
8	1	1	0	0	519	
9	1	1	0	0	521	
10	1	1	0	0	520	
11	1	1	0	0	520	
12	1	1	0	0	520	
13	1	1	0	0	521	
14	1	1	0	0	521	
15	1	1	0	0	520	
0	1	1	0	0	520	
1	1	1	0	0	521	
2	1	1	0	0	521	
3	1	1	0	0	522	
4	1	1	0	0	521	
5	1	1	0	0	521	
6	1	1	0	0	521	
7	1	1	0	0	521	
8	1	1	0	0	522	
9	1	1	0	0	522	
10	1	1	0	0	522	
11	1	1	0	0	522	
12	1	1	0	0	522	
13	1	1	0	0	522	
14	1	1	0	0	521	
15	1	1	0	0	522	
0	1	1	0	0	521	
1	1	1	0	0	522	
2	1	1	0	0	521	
3	1	1	0	0	521	
4	1	1	0	0	521	
5	1	1	0	0	521	
6	1	1	0	0	521	
7	1	1	0	0	521	
8	1	1	0	0	521	
9	1	1	0	0	521	
10	1	1	0	0	521	
11	1	1	0	0	521	
12	1	1	0	0	521	
13	1	1	0	0	521	
14	1	1	0	0	520	
15	1	1	0	0	520	
0	1	1	0	0	520	
1	1	1	0	0	520	
2	1	1	0	0	520	
3	1	1	0	0	520	
4	1	1	0	0	520	
5	1	1	0	0	519	
6	1	1	0	0	519	
7	1	1	0	0	519	
8	1	1	0	0	519	
9	1	1	0	0	519	
10	1	1	0	0	518	
11	1	1	0	0	518	
12	1	1	0	0	518	
13	1	1	0	0	517	
14	1	1	0	0	517	
15	1	1	0	0	516	
0	1	1	0	0	517	
1	1	1	0	0	516	
2	1	1	0	0	516	
3	1	1	0	0	515	
4	1	1	0	0	516	
5	1	1	0	0	515	
6	1	1	0	0	515	
7	1	1	0	0	515	
8	1	1	0	0	515	
9	1	1	0	0	514	
10	1	1	0	0	513	
11	1	1	0	0	514	
12	1	1	0	0	513	
13	1	1	0	0	513	
14	1	1	0	0	513	
15	1	1	0	0	512	
0	1	1	0	0	512	
1	1	1	0	0	512	
2	1	1	0	0	512	
3	1	1	0	0	512	
4	1	1	0	0	511	
5	1	1	0	0	511	
6	1	1	0	0	510	
7	1	1	0	0	510	
8	1	1	0	0	510	
9	1	1	0	0	510	
10	1	1	0	0	510	
11	1	1	0	0	509	
12	1	1	0	0	509	
13	1	1	0	0	508	
14	1	1	0	0	508	
15	1	1	0	0	508	
0	1	1	0	0	508	
1	1	1	0	0	507	
2	1	1	0	0	506	
3	1	1	0	0	507	
4	1	1	0	0	506	
5	1	1	0	0	505	
6	1	1	0	0	505	
7	1	1	0	0	506	
8	1	1	0	0	504	
9	1	1	0	0	504	
10	1	1	0	0	504	
11	1	1	0	0	504	
12	1	1	0	0	504	
13	1	1	0	0	504	
14	1	1	0	0	503	
15	1	1	0	0	503	
0	1	1	0	0	503	
1	1	1	0	0	504	
2	1	1	0	0	503	
3	1	1	0	0	502	
4	1	1	0	0	503	
5	1	1	0	0	503	
6	1	1	0	0	503	
7	1	1	0	0	502	
8	1	1	0	0	502	
9	1	1	0	0	502	
10	1	1	0	0	502	
11	1	1	0	0	501	
12	1	1	0	0	501	
13	1	1	0	0	501	
14	1	1	0	0	501	
15	1	1	0	0	500	
0	1	1	0	0	500	
1	1	1	0	0	500	
2	1	1	0	0	500	
3	1	1	0	0	500	
4	1	1	0	0	500	
5	1	1	0	0	500	
6	1	1	0	0	499	
7	1	1	0	0	500	
8	1	1	0	0	499	
9	1	1	0	0	499	
10	1	1	0	0	499	
11	1	1	0	0	499	
12	1	1	0	0	499	
13	1	1	0	0	499	
14	1	1	0	0	500	
15	1	1	0	0	498	
0	1	1	0	0	499	
1	1	1	0	0	499	
2	1	1	0	0	499	
3	1	1	0	0	499	
4	1	1	0	0	498	
5	1	1	0	0	499	
6	1	1	0	0	498	
7	1	1	0	0	498	
8	1	1	0	0	498	
9	1	1	0	0	498	
10	1	1	0	0	499	
11	1	1	0	0	498	
12	1	1	0	0	499	
13	1	1	0	0	499	
14	1	1	0	0	498	
15	1	1	0	0	498	
0	1	1	0	0	499	
1	1	1	0	0	499	
2	1	1	0	0	499	
3	1	1	0	0	499	
4	1	1	0	0	499	
5	1	1	0	0	499	
6	1	1	0	0	499	
7	1	1	0	0	500	
8	1	1	0	0	499	
9	1	1	0	0	499	
10	1	1	0	0	499	
11	1	1	0	0	500	
12	1	1	0	0	500	
13	1	1	0	0	500	
14	1	1	0	0	500	
15	1	1	0	0	500	
0	1	1	0	0	500	
1	1	1	0	0	501	
2	1	1	0	0	501	
3	1	1	0	0	500	
4	1	1	0	0	501	
5	1	1	0	0	501	
6	1	1	0	0	501	
7	1	1	0	0	502	
8	1	1	0	0	501	
9	1	1	0	0	502	
10	1	1	0	0	503	
11	1	1	0	0	503	
12	1	1	0	0	503	
13	1	1	0	0	504	
14	1	1	0	0	504	
15	1	1	0	0	504	
0	1	1	0	0	505	
1	1	1	0	0	505	
2	1	1	0	0	506	
3	1	1	0	0	506	
4	1	1	0	0	507	
5	1	1	0	0	507	
6	1	1	0	0	508	
7	1	1	0	0	509	
8	1	1	0	0	509	
9	1	1	0	0	510	
10	1	1	0	0	511	
11	1	1	0	0	512	
12	1	1	0	0	512	
13	1	1	0	0	513	
14	1	1	0	0	513	
15	1	1	0	0	514	
0	1	1	0	0	515	
1	1	1	0	0	516	
2	1	1	0	0	517	
3	1	1	0	0	518	
4	1	1	0	0	519	
5	1	1	0	0	520	
6	1	1	0	0	522	
7	1	1	0	0	522	
8	1	1	0	0	523	
9	1	1	0	0	524	
10	1	1	0	0	525	
11	1	1	0	0	526	
12	1	1	0	0	527	
13	1	1	0	0	528	
14	1	1	0	0	529	
15	1	1	0	0	531	
0	1	1	0	0	532	
1	1	1	0	0	533	
2	1	1	0	0	533	
3	1	1	0	0	535	
4	1	1	0	0	536	
5	1	1	0	0	536	
6	1	1	0	0	538	
7	1	1	0	0	539	
8	1	1	0	0	541	
9	1	1	0	0	541	
10	1	1	0	0	543	
11	1	1	0	0	544	
12	1	1	0	0	546	
13	1	1	0	0	547	
14	1	1	0	0	547	
15	1	1	0	0	550	
0	1	1	0	0	551	
1	1	1	0	0	552	
2	1	1	0	0	553	
3	1	1	0	0	555	
4	1	1	0	0	556	
5	1	1	0	0	557	
6	1	1	0	0	559	
7	1	1	0	0	560	
8	1	1	0	0	561	
9	1	1	0	0	563	
10	1	1	0	0	565	
11	1	1	0	0	566	
12	1	1	0	0	568	
13	1	1	0	0	568	
14	1	1	0	0	570	
15	1	1	0	0	571	
0	1	1	0	0	572	
1	1	1	0	0	574	
2	1	1	0	0	575	
3	1	1	0	0	576	
4	1	1	0	0	577	
5	1	1	0	0	579	
6	1	1	0	0	580	
7	1	1	0	0	581	
8	1	1	0	0	582	
9	1	1	0	0	583	
10	1	1	0	0	583	
11	1	1	0	0	584	
12	1	1	0	0	585	
13	1	1	0	0	587	
14	1	1	0	0	587	
15	1	1	0	0	588	
0	1	1	0	0	590	
1	1	1	0	0	590	
2	1	1	0	0	591	
3	1	1	0	0	592	
4	1	1	0	0	593	
5	1	1	0	0	593	
6	1	1	0	0	594	
7	1	1	0	0	595	
8	1	1	0	0	595	
9	1	1	0	0	596	
10	1	1	0	0	598	
11	1	1	0	0	598	
12	1	1	0	0	598	
13	1	1	0	0	599	
14	1	1	0	0	600	
15	1	1	0	0	600	
0	1	1	0	0	600	
1	1	1	0	0	601	
2	1	1	0	0	601	
3	1	1	0	0	601	
4	1	1	0	0	602	
5	1	1	0	0	603	
6	1	1	0	0	603	
7	1	1	0	0	603	
8	1	1	0	0	603	
9	1	1	0	0	604	
10	1	1	0	0	604	
11	1	1	0	0	604	
12	1	1	0	0	604	
13	1	1	0	0	604	
14	1	1	0	0	604	
15	1	1	0	0	604	
0	1	1	0	0	603	
1	1	1	0	0	604	
2	1	1	0	0	603	
3	1	1	0	0	604	
4	1	1	0	0	603	
5	1	1	0	0	603	
6	1	1	0	0	603	
7	1	1	0	0	602	
8	1	1	0	0	601	
9	1	1	0	0	601	
10	1	1	0	0	601	
11	1	1	0	0	600	
12	1	1	0	0	600	
13	1	1	0	0	600	
14	1	1	0	0	599	
15	1	1	0	0	599	
0	1	1	0	0	598	
1	1	1	0	0	598	
2	1	1	0	0	597	
3	1	1	0	0	596	
4	1	1	0	0	595	
5	1	1	0	0	595	
6	1	1	0	0	593	
7	1	1	0	0	593	
8	1	1	0	0	593	
9	1	1	0	0	592	
10	1	1	0	0	591	
11	1	1	0	0	591	
12	1	1	0	0	590	
13	1	1	0	0	589	
14	1	1	0	0	588	
15	1	1	0	0	588	
0	1	1	0	0	586	
1	1	1	0	0	586	
2	1	1	0	0	584	
3	1	1	0	0	584	
4	1	1	0	0	583	
5	1	1	0	0	582	
6	1	1	0	0	581	
7	1	1	0	0	580	
8	1	1	0	0	579	
9	1	1	0	0	579	
10	1	1	0	0	577	
11	1	1	0	0	576	
12	1	1	0	0	575	
13	1	1	0	0	574	
14	1	1	0	0	573	
15	1	1	0	0	572	
0	1	1	0	0	571	
1	1	1	0	0	569	
2	1	1	0	0	568	
3	1	1	0	0	567	
4	1	1	0	0	566	
5	1	1	0	0	564	
6	1	1	0	0	563	
7	1	1	0	0	562	
8	1	1	0	0	561	
9	1	1	0	0	560	
10	1	1	0	0	559	
11	1	1	0	0	557	
12	1	1	0	0	556	
13	1	1	0	0	555	
14	1	1	0	0	553	
15	1	1	0	0	552	
0	1	1	0	0	551	
1	1	1	0	0	549	
2	1	1	0	0	548	
3	1	1	0	0	547	
4	1	1	0	0	547	
5	1	1	0	0	545	
6	1	1	0	0	543	
7	1	1	0	0	543	
8	1	1	0	0	541	
9	1	1	0	0	540	
10	1	1	0	0	539	
11	1	1	0	0	538	
12	1	1	0	0	536	
13	1	1	0	0	536	
14	1	1	0	0	535	
15	1	1	0	0	534	
0	1	1	0	0	532	
1	1	1	0	0	531	
2	1	1	0	0	530	
3	1	1	0	0	528	
4	1	1	0	0	528	
5	1	1	0	0	527	
6	1	1	0	0	525	
7	1	1	0	0	524	
8	1	1	0	0	523	
9	1	1	0	0	521	
10	1	1	0	0	520	
11	1	1	0	0	519	
12	1	1	0	0	518	
13	1	1	0	0	517	
14	1	1	0	0	515	
15	1	1	0	0	515	
0	1	1	0	0	513	
1	1	1	0	0	512	
2	1	1	0	0	512	
3	1	1	0	0	510	
4	1	1	0	0	510	
5	1	1	0	0	509	
6	1	1	0	0	508	
7	1	1	0	0	506	
8	1	1	0	0	505	
9	1	1	0	0	504	
10	1	1	0	0	504	
11	1	1	0	0	502	
12	1	1	0	0	502	
13	1	1	0	0	500	
14	1	1	0	0	499	
15	1	1	0	0	498	
0	1	1	0	0	498	
1	1	1	0	0	496	
2	1	1	0	0	496	
3	1	1	0	0	495	
4	1	1	0	0	494	
5	1	1	0	0	494	
6	1	1	0	0	493	
7	1	1	0	0	492	
8	1	1	0	0	491	
9	1	1	0	0	490	
10	1	1	0	0	490	
11	1	1	0	0	489	
12	1	1	0	0	489	
13	1	1	0	0	488	
14	1	1	0	0	487	
15	1	1	0	0	487	
0	1	1	0	0	486	
1	1	1	0	0	486	
2	1	1	0	0	485	
3	1	1	0	0	484	
4	1	1	0	0	484	
5	1	1	0	0	483	
6	1	1	0	0	483	
7	1	1	0	0	483	
8	1	1	0	0	483	
9	1	1	0	0	482	
10	1	1	0	0	482	
11	1	1	0	0	481	
12	1	1	0	0	481	
13	1	1	0	0	481	
14	1	1	0	0	480	
15	1	1	0	0	480	
0	1	1	0	0	480	
1	1	1	0	0	480	
2	1	1	0	0	480	
3	1	1	0	0	479	
4	1	1	0	0	479	
5	1	1	0	0	479	
6	1	1	0	0	479	
7	1	1	0	0	479	
8	1	1	0	0	479	
9	1	1	0	0	479	
10	1	1	0	0	478	
11	1	1	0	0	478	
12	1	1	0	0	478	
13	1	1	0	0	478	
14	1	1	0	0	479	
15	1	1	0	0	478	
0	1	1	0	0	478	
1	1	1	0	0	478	
2	1	1	0	0	478	
3	1	1	0	0	478	
4	1	1	0	0	478	
5	1	1	0	0	478	
6	1	1	0	0	477	
7	1	1	0	0	478	
8	1	1	0	0	478	
9	1	1	0	0	478	
10	1	1	0	0	478	
11	1	1	0	0	478	
12	1	1	0	0	478	
13	1	1	0	0	478	
14	1	1	0	0	478	
15	1	1	0	0	479	
0	1	1	0	0	479	
1	1	1	0	0	478	
2	1	1	0	0	479	
3	1	1	0	0	479	
4	1	1	0	0	479	
5	1	1	0	0	479	
6	1	1	0	0	479	
7	1	1	0	0	479	
8	1	1	0	0	479	
9	1	1	0	0	480	
10	1	1	0	0	479	
11	1	1	0	0	480	
12	1	1	0	0	480	
13	1	1	0	0	480	
14	1	1	0	0	481	
15	1	1	0	0	480	
0	1	1	0	0	480	
1	1	1	0	0	481	
2	1	1	0	0	481	
3	1	1	0	0	481	
4	1	1	0	0	481	
5	1	1	0	0	482	
6	1	1	0	0	482	
7	1	1	0	0	483	
8	1	1	0	0	483	
9	1	1	0	0	483	
10	1	1	0	0	483	
11	1	1	0	0	484	
12	1	1	0	0	484	
13	1	1	0	0	484	
14	1	1	0	0	484	
15	1	1	0	0	485	
0	1	1	0	0	486	
1	1	1	0	0	485	
2	1	1	0	0	485	
3	1	1	0	0	486	
4	1	1	0	0	486	
5	1	1	0	0	487	
6	1	1	0	0	487	
7	1	1	0	0	487	
8	1	1	0	0	487	
9	1	1	0	0	487	
10	1	1	0	0	488	
11	1	1	0	0	488	
12	1	1	0	0	488	
13	1	1	0	0	488	
14	1	1	0	0	488	
15	1	1	0	0	489	
0	1	1	0	0	489	
1	1	1	0	0	490	
2	1	1	0	0	490	
3	1	1	0	0	490	
4	1	1	0	0	490	
5	1	1	0	0	491	
6	1	1	0	0	491	
7	1	1	0	0	492	
8	1	1	0	0	492	
9	1	1	0	0	493	
10	1	1	0	0	492	
11	1	1	0	0	493	
12	1	1	0	0	494	
13	1	1	0	0	494	
14	1	1	0	0	495	
15	1	1	0	0	494	
0	1	1	0	0	495	
1	1	1	0	0	496	
2	1	1	0	0	496	
3	1	1	0	0	496	
4	1	1	0	0	496	
5	1	1	0	0	496	
6	1	1	0	0	496	
7	1	1	0	0	497	
8	1	1	0	0	498	
9	1	1	0	0	497	
10	1	1	0	0	498	
11	1	1	0	0	498	
12	1	1	0	0	499	
13	1	1	0	0	499	
14	1	1	0	0	499	
15	1	1	0	0	499	
0	1	1	0	0	499	
1	1	1	0	0	500	
2	1	1	0	0	500	
3	1	1	0	0	500	
4	1	1	0	0	500	
5	1	1	0	0	500	
6	1	1	0	0	500	
7	1	1	0	0	501	
8	1	1	0	0	501	
9	1	1	0	0	501	
10	1	1	0	0	501	
11	1	1	0	0	501	
12	1	1	0	0	502	
13	1	1	0	0	502	
14	1	1	0	0	503	
15	1	1	0	0	502	
0	1	1	0	0	502	
1	1	1	0	0	502	
2	1	1	0	0	502	
3	1	1	0	0	502	
4	1	1	0	0	503	
5	1	1	0	0	503	
6	1	1	0	0	503	
7	1	1	0	0	503	
8	1	1	0	0	504	
9	1	1	0	0	504	
10	1	1	0	0	504	
11	1	1	0	0	504	
12	1	1	0	0	504	
13	1	1	0	0	505	
14	1	1	0	0	505	
15	1	1	0	0	505	
0	1	1	0	0	505	
1	1	1	0	0	505	
2	1	1	0	0	505	
3	1	1	0	0	505	
4	1	1	0	0	505	
5	1	1	0	0	506	
6	1	1	0	0	506	
7	1	1	0	0	507	
8	1	1	0	0	507	
9	1	1	0	0	507	
10	1	1	0	0	507	
11	1	1	0	0	507	
12	1	1	0	0	507	
13	1	1	0	0	508	
14	1	1	0	0	508	
15	1	1	0	0	507	
0	1	1	0	0	508	
1	1	1	0	0	508	
2	1	1	0	0	507	
3	1	1	0	0	508	
4	1	1	0	0	508	
5	1	1	0	0	508	
6	1	1	0	0	508	
7	1	1	0	0	508	
8	1	1	0	0	508	
9	1	1	0	0	508	
10	1	1	0	0	507	
11	1	1	0	0	507	
12	1	1	0	0	507	
13	1	1	0	0	507	
14	1	1	0	0	507	
15	1	1	0	0	507	
0	1	1	0	0	507	
1	1	1	0	0	508	
2	1	1	0	0	508	
3	1	1	0	0	508	
4	1	1	0	0	508	
5	1	1	0	0	508	
6	1	1	0	0	508	
7	1	1	0	0	507	
8	1	1	0	0	507	
9	1	1	0	0	508	
10	1	1	0	0	507	
11	1	1	0	0	508	
12	1	1	0	0	508	
13	1	1	0	0	508	
14	1	1	0	0	507	
15	1	1	0	0	507	
0	1	1	0	0	507	
1	1	1	0	0	507	
2	1	1	0	0	507	
3	1	1	0	0	508	
4	1	1	0	0	507	
5	1	1	0	0	507	
6	1	1	0	0	507	
7	1	1	0	0	507	
8	1	1	0	0	507	
9	1	1	0	0	507	
10	1	1	0	0	507	
11	1	1	0	0	506	
12	1	1	0	0	507	
13	1	1	0	0	506	
14	1	1	0	0	505	
15	1	1	0	0	505	
0	1	1	0	0	505	
1	1	1	0	0	505	
2	1	1	0	0	505	
3	1	1	0	0	504	
4	1	1	0	0	504	
5	1	1	0	0	504	
6	1	1	0	0	504	
7	1	1	0	0	504	
8	1	1	0	0	504	
9	1	1	0	0	504	
10	1	1	0	0	504	
11	1	1	0	0	504	
12	1	1	0	0	504	
13	1	1	0	0	504	
14	1	1	0	0	504	
15	1	1	0	0	504	
0	1	1	0	0	504	
1	1	1	0	0	503	
2	1	1	0	0	503	
3	1	1	0	0	503	
4	1	1	0	0	503	
5	1	1	0	0	503	
6	1	1	0	0	502	
7	1	1	0	0	503	
8	1	1	0	0	503	
9	1	1	0	0	503	
10	1	1	0	0	503	
11	1	1	0	0	502	
12	1	1	0	0	502	
13	1	1	0	0	502	
14	1	1	0	0	502	
15	1	1	0	0	502	
0	1	1	0	0	502	
1	1	1	0	0	502	
2	1	1	0	0	502	
3	1	1	0	0	501	
4	1	1	0	0	501	
5	1	1	0	0	500	
6	1	1	0	0	501	
7	1	1	0	0	500	
8	1	1	0	0	500	
9	1	1	0	0	500	
10	1	1	0	0	500	
11	1	1	0	0	500	
12	1	1	0	0	500	
13	1	1	0	0	500	
14	1	1	0	0	500	
15	1	1	0	0	499	
0	1	1	0	0	499	
1	1	1	0	0	499	
2	1	1	0	0	499	
3	1	1	0	0	499	
4	1	1	0	0	499	
5	1	1	0	0	499	
6	1	1	0	0	498	
7	1	1	0	0	499	
8	1	1	0	0	499	
9	1	1	0	0	499	
10	1	1	0	0	498	
11	1	1	0	0	499	
12	1	1	0	0	498	
13	1	1	0	0	498	
14	1	1	0	0	498	
15	1	1	0	0	498	
0	1	1	0	0	498	
1	1	1	0	0	499	
2	1	1	0	0	499	
3	1	1	0	0	498	
4	1	1	0	0	497	
5	1	1	0	0	498	
6	1	1	0	0	498	
7	1	1	0	0	498	
8	1	1	0	0	498	
9	1	1	0	0	497	
10	1	1	0	0	497	
11	1	1	0	0	498	
12	1	1	0	0	498	
13	1	1	0	0	498	
14	1	1	0	0	498	
15	1	1	0	0	499	
0	1	1	0	0	499	
1	1	1	0	0	499	
2	1	1	0	0	499	
3	1	1	0	0	499	
4	1	1	0	0	499	
5	1	1	0	0	500	
6	1	1	0	0	500	
7	1	1	0	0	500	
8	1	1	0	0	502	
9	1	1	0	0	501	
10	1	1	0	0	502	
11	1	1	0	0	502	
12	1	1	0	0	502	
13	1	1	0	0	503	
14	1	1	0	0	503	
15	1	1	0	0	504	
0	1	1	0	0	505	
1	1	1	0	0	505	
2	1	1	0	0	505	
3	1	1	0	0	506	
4	1	1	0	0	507	
5	1	1	0	0	507	
6	1	1	0	0	508	
7	1	1	0	0	508	
8	1	1	0	0	509	
9	1	1	0	0	510	
10	1	1	0	0	510	
11	1	1	0	0	511	
12	1	1	0	0	511	
13	1	1	0	0	512	
14	1	1	0	0	513	
15	1	1	0	0	514	
0	1	1	0	0	515	
1	1	1	0	0	515	
2	1	1	0	0	516	
3	1	1	0	0	516	
4	1	1	0	0	518	
5	1	1	0	0	519	
6	1	1	0	0	520	
7	1	1	0	0	520	
8	1	1	0	0	521	
9	1	1	0	0	522	
10	1	1	0	0	523	
11	1	1	0	0	524	
12	1	1	0	0	525	
13	1	1	0	0	526	
14	1	1	0	0	527	
15	1	1	0	0	528	
0	1	1	0	0	529	
1	1	1	0	0	530	
2	1	1	0	0	531	
3	1	1	0	0	532	
4	1	1	0	0	533	
5	1	1	0	0	534	
6	1	1	0	0	536	
7	1	1	0	0	536	
8	1	1	0	0	538	
9	1	1	0	0	539	
10	1	1	0	0	540	
11	1	1	0	0	541	
12	1	1	0	0	542	
13	1	1	0	0	543	
14	1	1	0	0	544	
15	1	1	0	0	545	
0	1	1	0	0	547	
1	1	1	0	0	547	
2	1	1	0	0	549	
3	1	1	0	0	550	
4	1	1	0	0	551	
5	1	1	0	0	551	
6	1	1	0	0	552	
7	1	1	0	0	554	
8	1	1	0	0	555	
9	1	1	0	0	556	
10	1	1	0	0	557	
11	1	1	0	0	558	
12	1	1	0	0	560	
13	1	1	0	0	560	
14	1	1	0	0	561	
15	1	1	0	0	562	
0	1	1	0	0	563	
1	1	1	0	0	564	
2	1	1	0	0	565	
3	1	1	0	0	566	
4	1	1	0	0	567	
5	1	1	0	0	568	
6	1	1	0	0	568	
7	1	1	0	0	569	
8	1	1	0	0	571	
9	1	1	0	0	572	
10	1	1	0	0	572	
11	1	1	0	0	572	
12	1	1	0	0	573	
13	1	1	0	0	574	
14	1	1	0	0	574	
15	1	1	0	0	575	
0	1	1	0	0	575	
1	1	1	0	0	576	
2	1	1	0	0	577	
3	1	1	0	0	577	
4	1	1	0	0	577	
5	1	1	0	0	578	
6	1	1	0	0	578	
7	1	1	0	0	579	
8	1	1	0	0	579	
9	1	1	0	0	579	
10	1	1	0	0	581	
11	1	1	0	0	580	
12	1	1	0	0	580	
13	1	1	0	0	580	
14	1	1	0	0	580	
15	1	1	0	0	580	
0	1	1	0	0	581	
1	1	1	0	0	581	
2	1	1	0	0	581	
3	1	1	0	0	581	
4	1	1	0	0	581	
5	1	1	0	0	581	
6	1	1	0	0	581	
7	1	1	0	0	581	
8	1	1	0	0	580	
9	1	1	0	0	580	
10	1	1	0	0	581	
11	1	1	0	0	580	
12	1	1	0	0	580	
13	1	1	0	0	580	
14	1	1	0	0	580	
15	1	1	0	0	579	
0	1	1	0	0	579	
1	1	1	0	0	578	
2	1	1	0	0	578	
3	1	1	0	0	578	
4	1	1	0	0	577	
5	1	1	0	0	578	
6	1	1	0	0	577	
7	1	1	0	0	577	
8	1	1	0	0	576	
9	1	1	0	0	575	
10	1	1	0	0	575	
11	1	1	0	0	574	
12	1	1	0	0	574	
13	1	1	0	0	572	
14	1	1	0	0	572	
15	1	1	0	0	572	
0	1	1	0	0	571	
1	1	1	0	0	570	
2	1	1	0	0	570	
3	1	1	0	0	569	
4	1	1	0	0	568	
5	1	1	0	0	568	
6	1	1	0	0	568	
7	1	1	0	0	567	
8	1	1	0	0	565	
9	1	1	0	0	565	
10	1	1	0	0	564	
11	1	1	0	0	563	
12	1	1	0	0	562	
13	1	1	0	0	561	
14	1	1	0	0	560	
15	1	1	0	0	559	
0	1	1	0	0	558	
1	1	1	0	0	558	
2	1	1	0	0	557	
3	1	1	0	0	556	
4	1	1	0	0	555	
5	1	1	0	0	554	
6	1	1	0	0	553	
7	1	1	0	0	552	
8	1	1	0	0	551	
9	1	1	0	0	550	
10	1	1	0	0	548	
11	1	1	0	0	547	
12	1	1	0	0	546	
13	1	1	0	0	545	
14	1	1	0	0	545	
15	1	1	0	0	543	
0	1	1	0	0	542	
1	1	1	0	0	541	
2	1	1	0	0	540	
3	1	1	0	0	539	
4	1	1	0	0	538	
5	1	1	0	0	537	
6	1	1	0	0	535	
7	1	1	0	0	534	
8	1	1	0	0	532	
9	1	1	0	0	531	
10	1	1	0	0	530	
11	1	1	0	0	528	
12	1	1	0	0	528	
13	1	1	0	0	527	
14	1	1	0	0	526	
15	1	1	0	0	524	
0	1	1	0	0	523	
1	1	1	0	0	522	
2	1	1	0	0	520	
3	1	1	0	0	519	
4	1	1	0	0	518	
5	1	1	0	0	517	
6	1	1	0	0	515	
7	1	1	0	0	515	
8	1	1	0	0	513	
9	1	1	0	0	512	
10	1	1	0	0	511	
11	1	1	0	0	510	
12	1	1	0	0	509	
13	1	1	0	0	508	
14	1	1	0	0	507	
15	1	1	0	0	505	
0	1	1	0	0	504	
1	1	1	0	0	502	
2	1	1	0	0	501	
3	1	1	0	0	500	
4	1	1	0	0	499	
5	1	1	0	0	497	
6	1	1	0	0	496	
7	1	1	0	0	496	
8	1	1	0	0	495	
9	1	1	0	0	494	
10	1	1	0	0	493	
11	1	1	0	0	492	
12	1	1	0	0	491	
13	1	1	0	0	490	
14	1	1	0	0	489	
15	1	1	0	0	488	
0	1	1	0	0	487	
1	1	1	0	0	487	
2	1	1	0	0	486	
3	1	1	0	0	485	
4	1	1	0	0	484	
5	1	1	0	0	483	
6	1	1	0	0	483	
7	1	1	0	0	483	
8	1	1	0	0	482	
9	1	1	0	0	481	
10	1	1	0	0	480	
11	1	1	0	0	480	
12	1	1	0	0	479	
13	1	1	0	0	479	
14	1	1	0	0	478	
15	1	1	0	0	477	
0	1	1	0	0	476	
1	1	1	0	0	476	
2	1	1	0	0	475	
3	1	1	0	0	475	
4	1	1	0	0	475	
5	1	1	0	0	473	
6	1	1	0	0	473	
7	1	1	0	0	472	
8	1	1	0	0	473	
9	1	1	0	0	472	
10	1	1	0	0	471	
11	1	1	0	0	471	
12	1	1	0	0	471	
13	1	1	0	0	471	
14	1	1	0	0	470	
15	1	1	0	0	470	
0	1	1	0	0	470	
1	1	1	0	0	468	
2	1	1	0	0	469	
3	1	1	0	0	468	
4	1	1	0	0	468	
5	1	1	0	0	468	
6	1	1	0	0	468	
7	1	1	0	0	467	
8	1	1	0	0	467	
9	1	1	0	0	467	
10	1	1	0	0	467	
11	1	1	0	0	468	
12	1	1	0	0	468	
13	1	1	0	0	467	
14	1	1	0	0	468	
15	1	1	0	0	468	
0	1	1	0	0	467	
1	1	1	0	0	467	
2	1	1	0	0	467	
3	1	1	0	0	468	
4	1	1	0	0	468	
5	1	1	0	0	468	
6	1	1	0	0	468	
7	1	1	0	0	468	
8	1	1	0	0	468	
9	1	1	0	0	468	
10	1	1	0	0	468	
11	1	1	0	0	469	
12	1	1	0	0	469	
13	1	1	0	0	469	
14	1	1	0	0	469	
15	1	1	0	0	469	
0	1	1	0	0	469	
1	1	1	0	0	470	
2	1	1	0	0	470	
3	1	1	0	0	470	
4	1	1	0	0	471	
5	1	1	0	0	471	
6	1	1	0	0	471	
7	1	1	0	0	472	
8	1	1	0	0	472	
9	1	1	0	0	472	
10	1	1	0	0	472	
11	1	1	0	0	473	
12	1	1	0	0	473	
13	1	1	0	0	473	
14	1	1	0	0	475	
15	1	1	0	0	475	
0	1	1	0	0	475	
1	1	1	0	0	475	
2	1	1	0	0	476	
3	1	1	0	0	476	
4	1	1	0	0	477	
5	1	1	0	0	477	
6	1	1	0	0	478	
7	1	1	0	0	478	
8	1	1	0	0	478	
9	1	1	0	0	479	
10	1	1	0	0	480	
11	1	1	0	0	481	
12	1	1	0	0	481	
13	1	1	0	0	481	
14	1	1	0	0	481	
15	1	1	0	0	482	
0	1	1	0	0	483	
1	1	1	0	0	483	
2	1	1	0	0	484	
3	1	1	0	0	484	
4	1	1	0	0	484	
5	1	1	0	0	485	
6	1	1	0	0	485	
7	1	1	0	0	486	
8	1	1	0	0	486	
9	1	1	0	0	486	
10	1	1	0	0	487	
11	1	1	0	0	487	
12	1	1	0	0	487	
13	1	1	0	0	488	
14	1	1	0	0	489	
15	1	1	0	0	489	
0	1	1	0	0	489	
1	1	1	0	0	489	
2	1	1	0	0	490	
3	1	1	0	0	490	
4	1	1	0	0	491	
5	1	1	0	0	492	
6	1	1	0	0	492	
7	1	1	0	0	493	
8	1	1	0	0	492	
9	1	1	0	0	493	
10	1	1	0	0	494	
11	1	1	0	0	494	
12	1	1	0	0	495	
13	1	1	0	0	495	
14	1	1	0	0	495	
15	1	1	0	0	496	
0	1	1	0	0	496	
1	1	1	0	0	497	
2	1	1	0	0	496	
3	1	1	0	0	497	
4	1	1	0	0	498	
5	1	1	0	0	498	
6	1	1	0	0	498	
7	1	1	0	0	498	
8	1	1	0	0	499	
9	1	1	0	0	499	
10	1	1	0	0	499	
11	1	1	0	0	500	
12	1	1	0	0	500	
13	1	1	0	0	500	
14	1	1	0	0	501	
15	1	1	0	0	502	
0	1	1	0	0	502	
1	1	1	0	0	503	
2	1	1	0	0	503	
3	1	1	0	0	503	
4	1	1	0	0	503	
5	1	1	0	0	504	
6	1	1	0	0	504	
7	1	1	0	0	504	
8	1	1	0	0	504	
9	1	1	0	0	505	
10	1	1	0	0	505	
11	1	1	0	0	505	
12	1	1	0	0	505	
13	1	1	0	0	506	
14	1	1	0	0	506	
15	1	1	0	0	506	
0	1	1	0	0	506	
1	1	1	0	0	506	
2	1	1	0	0	506	
3	1	1	0	0	507	
4	1	1	0	0	507	
5	1	1	0	0	507	
6	1	1	0	0	507	
7	1	1	0	0	508	
8	1	1	0	0	508	
9	1	1	0	0	508	
10	1	1	0	0	508	
11	1	1	0	0	508	
12	1	1	0	0	508	
13	1	1	0	0	508	
14	1	1	0	0	508	
15	1	1	0	0	508	
0	1	1	0	0	508	
1	1	1	0	0	508	
2	1	1	0	0	509	
3	1	1	0	0	509	
4	1	1	0	0	509	
5	1	1	0	0	509	
6	1	1	0	0	510	
7	1	1	0	0	510	
8	1	1	0	0	509	
9	1	1	0	0	509	
10	1	1	0	0	510	
11	1	1	0	0	510	
12	1	1	0	0	510	
13	1	1	0	0	511	
14	1	1	0	0	510	
15	1	1	0	0	511	
0	1	1	0	0	511	
1	1	1	0	0	511	
2	1	1	0	0	511	
3	1	1	0	0	511	
4	1	1	0	0	511	
5	1	1	0	0	512	
6	1	1	0	0	511	
7	1	1	0	0	511	
8	1	1	0	0	512	
9	1	1	0	0	512	
10	1	1	0	0	512	
11	1	1	0	0	512	
12	1	1	0	0	512	
13	1	1	0	0	511	
14	1	1	0	0	511	
15	1	1	0	0	511	
0	1	1	0	0	511	
1	1	1	0	0	511	
2	1	1	0	0	511	
3	1	1	0	0	512	
4	1	1	0	0	512	
5	1	1	0	0	511	
6	1	1	0	0	511	
7	1	1	0	0	511	
8	1	1	0	0	512	
9	1	1	0	0	511	
10	1	1	0	0	512	
11	1	1	0	0	512	
12	1	1	0	0	512	
13	1	1	0	0	512	
14	1	1	0	0	512	
15	1	1	0	0	512	
0	1	1	0	0	512	
1	1	1	0	0	512	
2	1	1	0	0	512	
3	1	1	0	0	512	
4	1	1	0	0	512	
5	1	1	0	0	512	
6	1	1	0	0	512	
7	1	1	0	0	512	
8	1	1	0	0	512	
9	1	1	0	0	511	
10	1	1	0	0	512	
11	1	1	0	0	511	
12	1	1	0	0	511	
13	1	1	0	0	512	
14	1	1	0	0	511	
15	1	1	0	0	511	
0	1	1	0	0	511	
1	1	1	0	0	511	
2	1	1	0	0	511	
3	1	1	0	0	510	
4	1	1	0	0	510	
5	1	1	0	0	510	
6	1	1	0	0	510	
7	1	1	0	0	510	
8	1	1	0	0	510	
9	1	1	0	0	509	
10	1	1	0	0	510	
11	1	1	0	0	509	
12	1	1	0	0	509	
13	1	1	0	0	509	
14	1	1	0	0	509	
15	1	1	0	0	509	
0	1	1	0	0	508	
1	1	1	0	0	508	
2	1	1	0	0	508	
3	1	1	0	0	508	
4	1	1	0	0	508	
5	1	1	0	0	508	
6	1	1	0	0	507	
7	1	1	0	0	507	
8	1	1	0	0	508	
9	1	1	0	0	507	
10	1	1	0	0	507	
11	1	1	0	0	506	
12	1	1	0	0	506	
13	1	1	0	0	506	
14	1	1	0	0	507	
15	1	1	0	0	506	
0	1	1	0	0	506	
1	1	1	0	0	506	
2	1	1	0	0	505	
3	1	1	0	0	505	
4	1	1	0	0	505	
5	1	1	0	0	505	
6	1	1	0	0	505	
7	1	1	0	0	505	
8	1	1	0	0	504	
9	1	1	0	0	504	
10	1	1	0	0	504	
11	1	1	0	0	504	
12	1	1	0	0	504	
13	1	1	0	0	503	
14	1	1	0	0	503	
15	1	1	0	0	504	
0	1	1	0	0	503	
1	1	1	0	0	503	
2	1	1	0	0	502	
3	1	1	0	0	501	
4	1	1	0	0	502	
5	1	1	0	0	501	
6	1	1	0	0	501	
7	1	1	0	0	500	
8	1	1	0	0	500	
9	1	1	0	0	500	
10	1	1	0	0	499	
11	1	1	0	0	500	
12	1	1	0	0	499	
13	1	1	0	0	499	
14	1	1	0	0	499	
15	1	1	0	0	499	
0	1	1	0	0	499	
1	1	1	0	0	499	
2	1	1	0	0	499	
3	1	1	0	0	499	
4	1	1	0	0	498	
5	1	1	0	0	498	
6	1	1	0	0	498	
7	1	1	0	0	498	
8	1	1	0	0	497	
9	1	1	0	0	497	
10	1	1	0	0	497	
11	1	1	0	0	497	
12	1	1	0	0	497	
13	1	1	0	0	497	
14	1	1	0	0	497	
15	1	1	0	0	496	
0	1	1	0	0	497	
1	1	1	0	0	496	
2	1	1	0	0	496	
3	1	1	0	0	497	
4	1	1	0	0	496	
5	1	1	0	0	496	
6	1	1	0	0	496	
7	1	1	0	0	497	
8	1	1	0	0	496	
9	1	1	0	0	496	
10	1	1	0	0	497	
11	1	1	0	0	496	
12	1	1	0	0	497	
13	1	1	0	0	496	
14	1	1	0	0	497	
15	1	1	0	0	497	
0	1	1	0	0	497	
1	1	1	0	0	496	
2	1	1	0	0	497	
3	1	1	0	0	497	
4	1	1	0	0	497	
5	1	1	0	0	498	
6	1	1	0	0	498	
7	1	1	0	0	497	
8	1	1	0	0	498	
9	1	1	0	0	498	
10	1	1	0	0	498	
11	1	1	0	0	499	
12	1	1	0	0	499	
13	1	1	0	0	500	
14	1	1	0	0	500	
15	1	1	0	0	501	
0	1	1	0	0	501	
1	1	1	0	0	502	
2	1	1	0	0	502	
3	1	1	0	0	502	
4	1	1	0	0	503	
5	1	1	0	0	504	
6	1	1	0	0	504	
7	1	1	0	0	504	
8	1	1	0	0	505	
9	1	1	0	0	505	
10	1	1	0	0	507	
11	1	1	0	0	507	
12	1	1	0	0	508	
13	1	1	0	0	508	
14	1	1	0	0	509	
15	1	1	0	0	510	
0	1	1	0	0	511	
1	1	1	0	0	512	
2	1	1	0	0	513	
3	1	1	0	0	513	
4	1	1	0	0	515	
5	1	1	0	0	515	
6	1	1	0	0	516	
7	1	1	0	0	517	
8	1	1	0	0	518	
9	1	1	0	0	519	
10	1	1	0	0	520	
11	1	1	0	0	521	
12	1	1	0	0	522	
13	1	1	0	0	524	
14	1	1	0	0	525	
15	1	1	0	0	524	
0	1	1	0	0	526	
1	1	1	0	0	528	
2	1	1	0	0	528	
3	1	1	0	0	530	
4	1	1	0	0	530	
5	1	1	0	0	532	
6	1	1	0	0	533	
7	1	1	0	0	535	
8	1	1	0	0	536	
9	1	1	0	0	537	
10	1	1	0	0	539	
11	1	1	0	0	540	
12	1	1	0	0	541	
13	1	1	0	0	543	
14	1	1	0	0	543	
15	1	1	0	0	544	
0	1	1	0	0	546	
1	1	1	0	0	547	
2	1	1	0	0	549	
3	1	1	0	0	550	
4	1	1	0	0	551	
5	1	1	0	0	552	
6	1	1	0	0	554	
7	1	1	0	0	555	
8	1	1	0	0	557	
9	1	1	0	0	558	
10	1	1	0	0	559	
11	1	1	0	0	560	
12	1	1	0	0	562	
13	1	1	0	0	563	
14	1	1	0	0	564	
15	1	1	0	0	566	
0	1	1	0	0	566	
1	1	1	0	0	567	
2	1	1	0	0	568	
3	1	1	0	0	569	
4	1	1	0	0	570	
5	1	1	0	0	571	
6	1	1	0	0	572	
7	1	1	0	0	573	
8	1	1	0	0	574	
9	1	1	0	0	575	
10	1	1	0	0	575	
11	1	1	0	0	576	
12	1	1	0	0	577	
13	1	1	0	0	577	
14	1	1	0	0	579	
15	1	1	0	0	580	
0	1	1	0	0	581	
1	1	1	0	0	582	
2	1	1	0	0	583	
3	1	1	0	0	583	
4	1	1	0	0	583	
5	1	1	0	0	584	
6	1	1	0	0	584	
7	1	1	0	0	585	
8	1	1	0	0	585	
9	1	1	0	0	587	
10	1	1	0	0	587	
11	1	1	0	0	587	
12	1	1	0	0	588	
13	1	1	0	0	588	
14	1	1	0	0	589	
15	1	1	0	0	589	
0	1	1	0	0	590	
1	1	1	0	0	590	
2	1	1	0	0	590	
3	1	1	0	0	591	
4	1	1	0	0	591	
5	1	1	0	0	592	
6	1	1	0	0	591	
7	1	1	0	0	591	
8	1	1	0	0	591	
9	1	1	0	0	591	
10	1	1	0	0	591	
11	1	1	0	0	591	
12	1	1	0	0	592	
13	1	1	0	0	591	
14	1	1	0	0	591	
15	1	1	0	0	591	
0	1	1	0	0	591	
1	1	1	0	0	591	
2	1	1	0	0	590	
3	1	1	0	0	590	
4	1	1	0	0	589	
5	1	1	0	0	590	
6	1	1	0	0	589	
7	1	1	0	0	589	
8	1	1	0	0	589	
9	1	1	0	0	588	
10	1	1	0	0	588	
11	1	1	0	0	587	
12	1	1	0	0	586	
13	1	1	0	0	586	
14	1	1	0	0	585	
15	1	1	0	0	584	
0	1	1	0	0	584	
1	1	1	0	0	583	
2	1	1	0	0	582	
3	1	1	0	0	582	
4	1	1	0	0	581	
5	1	1	0	0	580	
6	1	1	0	0	579	
7	1	1	0	0	579	
8	1	1	0	0	577	
9	1	1	0	0	577	
10	1	1	0	0	576	
11	1	1	0	0	575	
12	1	1	0	0	575	
13	1	1	0	0	574	
14	1	1	0	0	572	
15	1	1	0	0	571	
0	1	1	0	0	571	
1	1	1	0	0	569	
2	1	1	0	0	568	
3	1	1	0	0	568	
4	1	1	0	0	567	
5	1	1	0	0	566	
6	1	1	0	0	564	
7	1	1	0	0	564	
8	1	1	0	0	563	
9	1	1	0	0	561	
10	1	1	0	0	561	
11	1	1	0	0	559	
12	1	1	0	0	558	
13	1	1	0	0	557	
14	1	1	0	0	556	
15	1	1	0	0	555	
0	1	1	0	0	554	
1	1	1	0	0	552	
2	1	1	0	0	551	
3	1	1	0	0	550	
4	1	1	0	0	548	
5	1	1	0	0	548	
6	1	1	0	0	546	
7	1	1	0	0	545	
8	1	1	0	0	544	
9	1	1	0	0	542	
10	1	1	0	0	542	
11	1	1	0	0	540	
12	1	1	0	0	540	
13	1	1	0	0	538	
14	1	1	0	0	537	
15	1	1	0	0	536	
0	1	1	0	0	535	
1	1	1	0	0	534	
2	1	1	0	0	532	
3	1	1	0	0	531	
4	1	1	0	0	530	
5	1	1	0	0	529	
6	1	1	0	0	527	
7	1	1	0	0	527	
8	1	1	0	0	525	
9	1	1	0	0	524	
10	1	1	0	0	523	
11	1	1	0	0	522	
12	1	1	0	0	521	
13	1	1	0	0	519	
14	1	1	0	0	518	
15	1	1	0	0	517	
0	1	1	0	0	516	
1	1	1	0	0	515	
2	1	1	0	0	514	
3	1	1	0	0	512	
4	1	1	0	0	511	
5	1	1	0	0	510	
6	1	1	0	0	509	
7	1	1	0	0	507	
8	1	1	0	0	506	
9	1	1	0	0	505	
10	1	1	0	0	504	
11	1	1	0	0	503	
12	1	1	0	0	502	
13	1	1	0	0	501	
14	1	1	0	0	500	
15	1	1	0	0	499	
0	1	1	0	0	498	
1	1	1	0	0	497	
2	1	1	0	0	496	
3	1	1	0	0	496	
4	1	1	0	0	494	
5	1	1	0	0	494	
6	1	1	0	0	493	
7	1	1	0	0	492	
8	1	1	0	0	491	
9	1	1	0	0	491	
10	1	1	0	0	490	
11	1	1	0	0	488	
12	1	1	0	0	488	
13	1	1	0	0	487	
14	1	1	0	0	487	
15	1	1	0	0	486	
0	1	1	0	0	485	
1	1	1	0	0	484	
2	1	1	0	0	484	
3	1	1	0	0	483	
4	1	1	0	0	482	
5	1	1	0	0	482	
6	1	1	0	0	481	
7	1	1	0	0	480	
8	1	1	0	0	480	
9	1	1	0	0	480	
10	1	1	0	0	479	
11	1	1	0	0	478	
12	1	1	0	0	478	
13	1	1	0	0	478	
14	1	1	0	0	477	
15	1	1	0	0	476	
0	1	1	0	0	477	
1	1	1	0	0	475	
2	1	1	0	0	475	
3	1	1	0	0	475	
4	1	1	0	0	475	
5	1	1	0	0	473	
6	1	1	0	0	473	
7	1	1	0	0	473	
8	1	1	0	0	472	
9	1	1	0	0	472	
10	1	1	0	0	473	
11	1	1	0	0	473	
12	1	1	0	0	472	
13	1	1	0	0	472	
14	1	1	0	0	472	
15	1	1	0	0	472	
0	1	1	0	0	472	
1	1	1	0	0	472	
2	1	1	0	0	471	
3	1	1	0	0	471	
4	1	1	0	0	471	
5	1	1	0	0	471	
6	1	1	0	0	471	
7	1	1	0	0	471	
8	1	1	0	0	471	
9	1	1	0	0	471	
10	1	1	0	0	471	
11	1	1	0	0	470	
12	1	1	0	0	471	
13	1	1	0	0	471	
14	1	1	0	0	470	
15	1	1	0	0	471	
0	1	1	0	0	471	
1	1	1	0	0	471	
2	1	1	0	0	471	
3	1	1	0	0	471	
4	1	1	0	0	471	
5	1	1	0	0	471	
6	1	1	0	0	471	
7	1	1	0	0	471	
8	1	1	0	0	472	
9	1	1	0	0	472	
10	1	1	0	0	472	
11	1	1	0	0	472	
12	1	1	0	0	472	
13	1	1	0	0	472	
14	1	1	0	0	472	
15	1	1	0	0	472	
0	1	1	0	0	472	
1	1	1	0	0	473	
2	1	1	0	0	473	
3	1	1	0	0	473	
4	1	1	0	0	473	
5	1	1	0	0	473	
6	1	1	0	0	473	
7	1	1	0	0	474	
8	1	1	0	0	475	
9	1	1	0	0	475	
10	1	1	0	0	475	
11	1	1	0	0	476	
12	1	1	0	0	476	
13	1	1	0	0	477	
14	1	1	0	0	476	
15	1	1	0	0	477	
0	1	1	0	0	477	
1	1	1	0	0	478	
2	1	1	0	0	478	
3	1	1	0	0	479	
4	1	1	0	0	479	
5	1	1	0	0	480	
6	1	1	0	0	480	
7	1	1	0	0	480	
8	1	1	0	0	480	
9	1	1	0	0	481	
10	1	1	0	0	481	
11	1	1	0	0	482	
12	1	1	0	0	483	
13	1	1	0	0	483	
14	1	1	0	0	483	
15	1	1	0	0	483	
0	1	1	0	0	484	
1	1	1	0	0	485	
2	1	1	0	0	485	
3	1	1	0	0	485	
4	1	1	0	0	486	
5	1	1	0	0	486	
6	1	1	0	0	486	
7	1	1	0	0	487	
8	1	1	0	0	487	
9	1	1	0	0	488	
10	1	1	0	0	489	
11	1	1	0	0	489	
12	1	1	0	0	490	
13	1	1	0	0	490	
14	1	1	0	0	490	
15	1	1	0	0	491	
0	1	1	0	0	492	
1	1	1	0	0	492	
2	1	1	0	0	493	
3	1	1	0	0	493	
4	1	1	0	0	494	
5	1	1	0	0	494	
6	1	1	0	0	495	
7	1	1	0	0	495	
8	1	1	0	0	495	
9	1	1	0	0	496	
10	1	1	0	0	497	
11	1	1	0	0	497	
12	1	1	0	0	497	
13	1	1	0	0	498	
14	1	1	0	0	499	
15	1	1	0	0	499	
0	1	1	0	0	499	
1	1	1	0	0	500	
2	1	1	0	0	500	
3	1	1	0	0	502	
4	1	1	0	0	502	
5	1	1	0	0	502	
6	1	1	0	0	503	
7	1	1	0	0	503	
8	1	1	0	0	504	
9	1	1	0	0	503	
10	1	1	0	0	503	
11	1	1	0	0	504	
12	1	1	0	0	504	
13	1	1	0	0	505	
14	1	1	0	0	504	
15	1	1	0	0	505	
0	1	1	0	0	506	
1	1	1	0	0	506	
2	1	1	0	0	507	
3	1	1	0	0	506	
4	1	1	0	0	506	
5	1	1	0	0	506	
6	1	1	0	0	506	
7	1	1	0	0	507	
8	1	1	0	0	508	
9	1	1	0	0	507	
10	1	1	0	0	508	
11	1	1	0	0	508	
12	1	1	0	0	508	
13	1	1	0	0	508	
14	1	1	0	0	509	
15	1	1	0	0	509	
0	1	1	0	0	509	
1	1	1	0	0	509	
2	1	1	0	0	509	
3	1	1	0	0	509	
4	1	1	0	0	509	
5	1	1	0	0	510	
6	1	1	0	0	509	
7	1	1	0	0	510	
8	1	1	0	0	510	
9	1	1	0	0	510	
10	1	1	0	0	510	
11	1	1	0	0	510	
12	1	1	0	0	510	
13	1	1	0	0	510	
14	1	1	0	0	510	
15	1	1	0	0	510	
0	1	1	0	0	510	
1	1	1	0	0	511	
2	1	1	0	0	510	
3	1	1	0	0	510	
4	1	1	0	0	510	
5	1	1	0	0	510	
6	1	1	0	0	510	
7	1	1	0	0	510	
8	1	1	0	0	510	
9	1	1	0	0	510	
10	1	1	0	0	509	
11	1	1	0	0	509	
12	1	1	0	0	509	
13	1	1	0	0	508	
14	1	1	0	0	508	
15	1	1	0	0	508	
0	1	1	0	0	508	
1	1	1	0	0	508	
2	1	1	0	0	508	
3	1	1	0	0	508	
4	1	1	0	0	508	
5	1	1	0	0	508	
6	1	1	0	0	508	
7	1	1	0	0	508	
8	1	1	0	0	508	
9	1	1	0	0	508	
10	1	1	0	0	508	
11	1	1	0	0	508	
12	1	1	0	0	508	
13	1	1	0	0	508	
14	1	1	0	0	507	
15	1	1	0	0	507	
0	1	1	0	0	507	
1	1	1	0	0	506	
2	1	1	0	0	506	
3	1	1	0	0	506	
4	1	1	0	0	505	
5	1	1	0	0	506	
6	1	1	0	0	505	
7	1	1	0	0	505	
8	1	1	0	0	505	
9	1	1	0	0	504	
10	1	1	0	0	505	
11	1	1	0	0	504	
12	1	1	0	0	504	
13	1	1	0	0	504	
14	1	1	0	0	504	
15	1	1	0	0	504	
0	1	1	0	0	504	
1	1	1	0	0	503	
2	1	1	0	0	503	
3	1	1	0	0	504	
4	1	1	0	0	503	
5	1	1	0	0	503	
6	1	1	0	0	502	
7	1	1	0	0	502	
8	1	1	0	0	502	
9	1	1	0	0	502	
10	1	1	0	0	502	
11	1	1	0	0	501	
12	1	1	0	0	502	
13	1	1	0	0	500	
14	1	1	0	0	501	
15	1	1	0	0	500	
0	1	1	0	0	500	
1	1	1	0	0	500	
2	1	1	0	0	500	
3	1	1	0	0	500	
4	1	1	0	0	500	
5	1	1	0	0	500	
6	1	1	0	0	500	
7	1	1	0	0	499	
8	1	1	0	0	499	
9	1	1	0	0	499	
10	1	1	0	0	499	
11	1	1	0	0	499	
12	1	1	0	0	498	
13	1	1	0	0	498	
14	1	1	0	0	498	
15	1	1	0	0	497	
0	1	1	0	0	498	
1	1	1	0	0	497	
2	1	1	0	0	497	
3	1	1	0	0	497	
4	1	1	0	0	497	
5	1	1	0	0	497	
6	1	1	0	0	496	
7	1	1	0	0	496	
8	1	1	0	0	496	
9	1	1	0	0	496	
10	1	1	0	0	496	
11	1	1	0	0	496	
12	1	1	0	0	496	
13	1	1	0	0	496	
14	1	1	0	0	495	
15	1	1	0	0	495	
0	1	1	0	0	494	
1	1	1	0	0	495	
2	1	1	0	0	494	
3	1	1	0	0	495	
4	1	1	0	0	494	
5	1	1	0	0	493	
6	1	1	0	0	494	
7	1	1	0	0	493	
8	1	1	0	0	493	
9	1	1	0	0	493	
10	1	1	0	0	493	
11	1	1	0	0	492	
12	1	1	0	0	493	
13	1	1	0	0	493	
14	1	1	0	0	492	
15	1	1	0	0	493	
0	1	1	0	0	492	
1	1	1	0	0	492	
2	1	1	0	0	492	
3	1	1	0	0	492	
4	1	1	0	0	492	
5	1	1	0	0	492	
6	1	1	0	0	492	
7	1	1	0	0	492	
8	1	1	0	0	492	
9	1	1	0	0	492	
10	1	1	0	0	492	
11	1	1	0	0	492	
12	1	1	0	0	492	
13	1	1	0	0	492	
14	1	1	0	0	492	
15	1	1	0	0	492	
0	1	1	0	0	492	
1	1	1	0	0	492	
2	1	1	0	0	492	
3	1	1	0	0	492	
4	1	1	0	0	492	
5	1	1	0	0	492	
6	1	1	0	0	491	
7	1	1	0	0	492	
8	1	1	0	0	491	
9	1	1	0	0	491	
10	1	1	0	0	491	
11	1	1	0	0	491	
12	1	1	0	0	491	
13	1	1	0	0	491	
14	1	1	0	0	491	
15	1	1	0	0	492	
0	1	1	0	0	492	
1	1	1	0	0	492	
2	1	1	0	0	492	
3	1	1	0	0	492	
4	1	1	0	0	492	
5	1	1	0	0	492	
6	1	1	0	0	493	
7	1	1	0	0	492	
8	1	1	0	0	493	
9	1	1	0	0	493	
10	1	1	0	0	493	
11	1	1	0	0	493	
12	1	1	0	0	494	
13	1	1	0	0	494	
14	1	1	0	0	494	
15	1	1	0	0	495	
0	1	1	0	0	495	
1	1	1	0	0	496	
2	1	1	0	0	496	
3	1	1	0	0	497	
4	1	1	0	0	497	
5	1	1	0	0	497	
6	1	1	0	0	497	
7	1	1	0	0	498	
8	1	1	0	0	499	
9	1	1	0	0	499	
10	1	1	0	0	499	
11	1	1	0	0	500	
12	1	1	0	0	500	
13	1	1	0	0	501	
14	1	1	0	0	502	
15	1	1	0	0	502	
0	1	1	0	0	503	
1	1	1	0	0	503	
2	1	1	0	0	504	
3	1	1	0	0	504	
4	1	1	0	0	505	
5	1	1	0	0	505	
6	1	1	0	0	507	
7	1	1	0	0	508	
8	1	1	0	0	508	
9	1	1	0	0	509	
10	1	1	0	0	510	
11	1	1	0	0	511	
12	1	1	0	0	511	
13	1	1	0	0	512	
14	1	1	0	0	513	
15	1	1	0	0	513	
0	1	1	0	0	515	
1	1	1	0	0	516	
2	1	1	0	0	517	
3	1	1	0	0	518	
4	1	1	0	0	519	
5	1	1	0	0	520	
6	1	1	0	0	522	
7	1	1	0	0	523	
8	1	1	0	0	524	
9	1	1	0	0	526	
10	1	1	0	0	527	
11	1	1	0	0	527	
12	1	1	0	0	529	
13	1	1	0	0	530	
14	1	1	0	0	531	
15	1	1	0	0	533	
0	1	1	0	0	534	
1	1	1	0	0	536	
2	1	1	0	0	536	
3	1	1	0	0	538	
4	1	1	0	0	540	
5	1	1	0	0	541	
6	1	1	0	0	542	
7	1	1	0	0	544	
8	1	1	0	0	545	
9	1	1	0	0	545	
10	1	1	0	0	547	
11	1	1	0	0	548	
12	1	1	0	0	550	
13	1	1	0	0	551	
14	1	1	0	0	553	
15	1	1	0	0	554	
0	1	1	0	0	556	
1	1	1	0	0	557	
2	1	1	0	0	559	
3	1	1	0	0	560	
4	1	1	0	0	562	
5	1	1	0	0	563	
6	1	1	0	0	564	
7	1	1	0	0	566	
8	1	1	0	0	567	
9	1	1	0	0	569	
10	1	1	0	0	569	
11	1	1	0	0	571	
12	1	1	0	0	572	
13	1	1	0	0	574	
14	1	1	0	0	575	
15	1	1	0	0	576	
0	1	1	0	0	578	
1	1	1	0	0	579	
2	1	1	0	0	580	
3	1	1	0	0	581	
4	1	1	0	0	582	
5	1	1	0	0	583	
6	1	1	0	0	584	
7	1	1	0	0	585	
8	1	1	0	0	587	
9	1	1	0	0	588	
10	1	1	0	0	589	
11	1	1	0	0	590	
12	1	1	0	0	591	
13	1	1	0	0	591	
14	1	1	0	0	592	
15	1	1	0	0	594	
0	1	1	0	0	594	
1	1	1	0	0	595	
2	1	1	0	0	596	
3	1	1	0	0	596	
4	1	1	0	0	598	
5	1	1	0	0	598	
6	1	1	0	0	599	
7	1	1	0	0	599	
8	1	1	0	0	599	
9	1	1	0	0	600	
10	1	1	0	0	600	
11	1	1	0	0	601	
12	1	1	0	0	601	
13	1	1	0	0	602	
14	1	1	0	0	602	
15	1	1	0	0	603	
0	1	1	0	0	604	
1	1	1	0	0	604	
2	1	1	0	0	604	
3	1	1	0	0	604	
4	1	1	0	0	605	
5	1	1	0	0	604	
6	1	1	0	0	605	
7	1	1	0	0	605	
8	1	1	0	0	605	
9	1	1	0	0	605	
10	1	1	0	0	605	
11	1	1	0	0	604	
12	1	1	0	0	604	
13	1	1	0	0	604	
14	1	1	0	0	604	
15	1	1	0	0	603	
0	1	1	0	0	604	
1	1	1	0	0	603	
2	1	1	0	0	602	
3	1	1	0	0	601	
4	1	1	0	0	602	
5	1	1	0	0	601	
6	1	1	0	0	600	
7	1	1	0	0	600	
8	1	1	0	0	600	
9	1	1	0	0	599	
10	1	1	0	0	598	
11	1	1	0	0	598	
12	1	1	0	0	597	
13	1	1	0	0	596	
14	1	1	0	0	595	
15	1	1	0	0	595	
0	1	1	0	0	594	
1	1	1	0	0	592	
2	1	1	0	0	591	
3	1	1	0	0	591	
4	1	1	0	0	590	
5	1	1	0	0	590	
6	1	1	0	0	588	
7	1	1	0	0	587	
8	1	1	0	0	587	
9	1	1	0	0	586	
10	1	1	0	0	584	
11	1	1	0	0	583	
12	1	1	0	0	582	
13	1	1	0	0	582	
14	1	1	0	0	580	
15	1	1	0	0	579	
0	1	1	0	0	578	
1	1	1	0	0	577	
2	1	1	0	0	576	
3	1	1	0	0	575	
4	1	1	0	0	574	
5	1	1	0	0	572	
6	1	1	0	0	572	
7	1	1	0	0	570	
8	1	1	0	0	568	
9	1	1	0	0	568	
10	1	1	0	0	567	
11	1	1	0	0	565	
12	1	1	0	0	564	
13	1	1	0	0	563	
14	1	1	0	0	562	
15	1	1	0	0	561	
0	1	1	0	0	560	
1	1	1	0	0	559	
2	1	1	0	0	557	
3	1	1	0	0	556	
4	1	1	0	0	555	
5	1	1	0	0	554	
6	1	1	0	0	552	
7	1	1	0	0	551	
8	1	1	0	0	549	
9	1	1	0	0	548	
10	1	1	0	0	547	
11	1	1	0	0	545	
12	1	1	0	0	544	
13	1	1	0	0	543	
14	1	1	0	0	542	
15	1	1	0	0	540	
0	1	1	0	0	539	
1	1	1	0	0	537	
2	1	1	0	0	536	
3	1	1	0	0	536	
4	1	1	0	0	534	
5	1	1	0	0	532	
6	1	1	0	0	531	
7	1	1	0	0	530	
8	1	1	0	0	528	
9	1	1	0	0	527	
10	1	1	0	0	526	
11	1	1	0	0	524	
12	1	1	0	0	524	
13	1	1	0	0	522	
14	1	1	0	0	521	
15	1	1	0	0	519	
0	1	1	0	0	518	
1	1	1	0	0	517	
2	1	1	0	0	516	
3	1	1	0	0	514	
4	1	1	0	0	513	
5	1	1	0	0	512	
6	1	1	0	0	511	
7	1	1	0	0	510	
8	1	1	0	0	509	
9	1	1	0	0	508	
10	1	1	0	0	507	
11	1	1	0	0	506	
12	1	1	0	0	504	
13	1	1	0	0	504	
14	1	1	0	0	503	
15	1	1	0	0	501	
0	1	1	0	0	500	
1	1	1	0	0	499	
2	1	1	0	0	498	
3	1	1	0	0	497	
4	1	1	0	0	496	
5	1	1	0	0	495	
6	1	1	0	0	494	
7	1	1	0	0	492	
8	1	1	0	0	492	
9	1	1	0	0	491	
10	1	1	0	0	490	
11	1	1	0	0	489	
12	1	1	0	0	488	
13	1	1	0	0	486	
14	1	1	0	0	486	
15	1	1	0	0	485	
0	1	1	0	0	484	
1	1	1	0	0	483	
2	1	1	0	0	483	
3	1	1	0	0	481	
4	1	1	0	0	481	
5	1	1	0	0	480	
6	1	1	0	0	480	
7	1	1	0	0	479	
8	1	1	0	0	478	
9	1	1	0	0	477	
10	1	1	0	0	476	
11	1	1	0	0	476	
12	1	1	0	0	475	
13	1	1	0	0	474	
14	1	1	0	0	474	
15	1	1	0	0	473	
0	1	1	0	0	472	
1	1	1	0	0	472	
2	1	1	0	0	472	
3	1	1	0	0	471	
4	1	1	0	0	471	
5	1	1	0	0	470	
6	1	1	0	0	469	
7	1	1	0	0	469	
8	1	1	0	0	469	
9	1	1	0	0	468	
10	1	1	0	0	468	
11	1	1	0	0	467	
12	1	1	0	0	467	
13	1	1	0	0	466	
14	1	1	0	0	467	
15	1	1	0	0	466	
0	1	1	0	0	465	
1	1	1	0	0	465	
2	1	1	0	0	465	
3	1	1	0	0	464	
4	1	1	0	0	464	
5	1	1	0	0	464	
6	1	1	0	0	463	
7	1	1	0	0	463	
8	1	1	0	0	463	
9	1	1	0	0	462	
10	1	1	0	0	463	
11	1	1	0	0	462	
12	1	1	0	0	463	
13	1	1	0	0	463	
14	1	1	0	0	462	
15	1	1	0	0	463	
0	1	1	0	0	463	
1	1	1	0	0	463	
2	1	1	0	0	463	
3	1	1	0	0	462	
4	1	1	0	0	462	
5	1	1	0	0	463	
6	1	1	0	0	462	
7	1	1	0	0	463	
8	1	1	0	0	463	
9	1	1	0	0	463	
10	1	1	0	0	463	
11	1	1	0	0	463	
12	1	1	0	0	463	
13	1	1	0	0	464	
14	1	1	0	0	464	
15	1	1	0	0	464	
0	1	1	0	0	464	
1	1	1	0	0	464	
2	1	1	0	0	465	
3	1	1	0	0	465	
4	1	1	0	0	465	
5	1	1	0	0	465	
6	1	1	0	0	466	
7	1	1	0	0	466	
8	1	1	0	0	467	
9	1	1	0	0	467	
10	1	1	0	0	467	
11	1	1	0	0	467	
12	1	1	0	0	468	
13	1	1	0	0	468	
14	1	1	0	0	468	
15	1	1	0	0	469	
0	1	1	0	0	470	
1	1	1	0	0	470	
2	1	1	0	0	470	
3	1	1	0	0	471	
4	1	1	0	0	471	
5	1	1	0	0	471	
6	1	1	0	0	472	
7	1	1	0	0	472	
8	1	1	0	0	472	
9	1	1	0	0	472	
10	1	1	0	0	473	
11	1	1	0	0	473	
12	1	1	0	0	474	
13	1	1	0	0	474	
14	1	1	0	0	474	
15	1	1	0	0	475	
0	1	1	0	0	475	
1	1	1	0	0	475	
2	1	1	0	0	476	
3	1	1	0	0	476	
4	1	1	0	0	477	
5	1	1	0	0	477	
6	1	1	0	0	477	
7	1	1	0	0	478	
8	1	1	0	0	479	
9	1	1	0	0	479	
10	1	1	0	0	479	
11	1	1	0	0	480	
12	1	1	0	0	480	
13	1	1	0	0	481	
14	1	1	0	0	481	
15	1	1	0	0	482	
0	1	1	0	0	482	
1	1	1	0	0	483	
2	1	1	0	0	483	
3	1	1	0	0	483	
4	1	1	0	0	483	
5	1	1	0	0	484	
6	1	1	0	0	484	
7	1	1	0	0	485	
8	1	1	0	0	486	
9	1	1	0	0	486	
10	1	1	0	0	487	
11	1	1	0	0	487	
12	1	1	0	0	487	
13	1	1	0	0	488	
14	1	1	0	0	488	
15	1	1	0	0	489	
0	1	1	0	0	489	
1	1	1	0	0	489	
2	1	1	0	0	490	
3	1	1	0	0	491	
4	1	1	0	0	492	
5	1	1	0	0	492	
6	1	1	0	0	492	
7	1	1	0	0	493	
8	1	1	0	0	493	
9	1	1	0	0	494	
10	1	1	0	0	495	
11	1	1	0	0	495	
12	1	1	0	0	495	
13	1	1	0	0	495	
14	1	1	0	0	495	
15	1	1	0	0	496	
0	1	1	0	0	496	
1	1	1	0	0	497	
2	1	1	0	0	497	
3	1	1	0	0	497	
4	1	1	0	0	498	
5	1	1	0	0	498	
6	1	1	0	0	498	
7	1	1	0	0	499	
8	1	1	0	0	499	
9	1	1	0	0	500	
10	1	1	0	0	500	
11	1	1	0	0	501	
12	1	1	0	0	500	
13	1	1	0	0	501	
14	1	1	0	0	502	
15	1	1	0	0	501	
0	1	1	0	0	502	
1	1	1	0	0	502	
2	1	1	0	0	502	
3	1	1	0	0	503	
4	1	1	0	0	503	
5	1	1	0	0	503	
6	1	1	0	0	503	
7	1	1	0	0	504	
8	1	1	0	0	504	
9	1	1	0	0	504	
10	1	1	0	0	504	
11	1	1	0	0	505	
12	1	1	0	0	505	
13	1	1	0	0	505	
14	1	1	0	0	505	
15	1	1	0	0	505	
0	1	1	0	0	505	
1	1	1	0	0	505	
2	1	1	0	0	506	
3	1	1	0	0	507	
4	1	1	0	0	506	
5	1	1	0	0	506	
6	1	1	0	0	506	
7	1	1	0	0	507	
8	1	1	0	0	506	
9	1	1	0	0	507	
10	1	1	0	0	507	
11	1	1	0	0	507	
12	1	1	0	0	507	
13	1	1	0	0	506	
14	1	1	0	0	507	
15	1	1	0	0	507	
0	1	1	0	0	507	
1	1	1	0	0	507	
2	1	1	0	0	507	
3	1	1	0	0	507	
4	1	1	0	0	507	
5	1	1	0	0	507	
6	1	1	0	0	507	
7	1	1	0	0	507	
8	1	1	0	0	507	
9	1	1	0	0	507	
10	1	1	0	0	506	
11	1	1	0	0	507	
12	1	1	0	0	506	
13	1	1	0	0	506	
14	1	1	0	0	506	
15	1	1	0	0	506	
0	1	1	0	0	506	
1	1	1	0	0	506	
2	1	1	0	0	505	
3	1	1	0	0	505	
4	1	1	0	0	505	
5	1	1	0	0	505	
6	1	1	0	0	505	
7	1	1	0	0	505	
8	1	1	0	0	504	
9	1	1	0	0	505	
10	1	1	0	0	505	
11	1	1	0	0	505	
12	1	1	0	0	505	
13	1	1	0	0	505	
14	1	1	0	0	504	
15	1	1	0	0	504	
0	1	1	0	0	504	
1	1	1	0	0	504	
2	1	1	0	0	504	
3	1	1	0	0	504	
4	1	1	0	0	504	
5	1	1	0	0	504	
6	1	1	0	0	504	
7	1	1	0	0	504	
8	1	1	0	0	504	
9	1	1	0	0	504	
10	1	1	0	0	504	
11	1	1	0	0	504	
12	1	1	0	0	504	
13	1	1	0	0	504	
14	1	1	0	0	504	
15	1	1	0	0	504	
0	1	1	0	0	504	
1	1	1	0	0	504	
2	1	1	0	0	504	
3	1	1	0	0	504	
4	1	1	0	0	503	
5	1	1	0	0	503	
6	1	1	0	0	503	
7	1	1	0	0	503	
8	1	1	0	0	502	
9	1	1	0	0	503	
10	1	1	0	0	503	
11	1	1	0	0	503	
12	1	1	0	0	503	
13	1	1	0	0	502	
14	1	1	0	0	502	
15	1	1	0	0	502	
0	1	1	0	0	502	
1	1	1	0	0	501	
2	1	1	0	0	501	
3	1	1	0	0	501	
4	1	1	0	0	501	
5	1	1	0	0	500	
6	1	1	0	0	501	
7	1	1	0	0	500	
8	1	1	0	0	500	
9	1	1	0	0	499	
10	1	1	0	0	499	
11	1	1	0	0	499	
12	1	1	0	0	499	
13	1	1	0	0	499	
14	1	1	0	0	499	
15	1	1	0	0	499	
0	1	1	0	0	499	
1	1	1	0	0	499	
2	1	1	0	0	499	
3	1	1	0	0	498	
4	1	1	0	0	498	
5	1	1	0	0	498	
6	1	1	0	0	498	
7	1	1	0	0	497	
8	1	1	0	0	497	
9	1	1	0	0	497	
10	1	1	0	0	497	
11	1	1	0	0	497	
12	1	1	0	0	497	
13	1	1	0	0	497	
14	1	1	0	0	497	
15	1	1	0	0	497	
0	1	1	0	0	497	
1	1	1	0	0	497	
2	1	1	0	0	497	
3	1	1	0	0	497	
4	1	1	0	0	497	
5	1	1	0	0	496	
6	1	1	0	0	496	
7	1	1	0	0	496	
8	1	1	0	0	496	
9	1	1	0	0	496	
10	1	1	0	0	496	
11	1	1	0	0	495	
12	1	1	0	0	495	
13	1	1	0	0	495	
14	1	1	0	0	495	
15	1	1	0	0	495	
0	1	1	0	0	495	
1	1	1	0	0	495	
2	1	1	0	0	495	
3	1	1	0	0	495	
4	1	1	0	0	495	
5	1	1	0	0	494	
6	1	1	0	0	494	
7	1	1	0	0	494	
8	1	1	0	0	494	
9	1	1	0	0	494	
10	1	1	0	0	495	
11	1	1	0	0	494	
12	1	1	0	0	494	
13	1	1	0	0	494	
14	1	1	0	0	494	
15	1	1	0	0	494	
0	1	1	0	0	494	
1	1	1	0	0	494	
2	1	1	0	0	494	
3	1	1	0	0	494	
4	1	1	0	0	494	
5	1	1	0	0	493	
6	1	1	0	0	494	
7	1	1	0	0	494	
8	1	1	0	0	493	
9	1	1	0	0	494	
10	1	1	0	0	494	
11	1	1	0	0	493	
12	1	1	0	0	493	
13	1	1	0	0	493	
14	1	1	0	0	493	
15	1	1	0	0	493	
0	1	1	0	0	492	
1	1	1	0	0	492	
2	1	1	0	0	493	
3	1	1	0	0	492	
4	1	1	0	0	492	
5	1	1	0	0	492	
6	1	1	0	0	492	
7	1	1	0	0	492	
8	1	1	0	0	492	
9	1	1	0	0	492	
10	1	1	0	0	492	
11	1	1	0	0	492	
12	1	1	0	0	492	
13	1	1	0	0	492	
14	1	1	0	0	492	
15	1	1	0	0	492	
0	1	1	0	0	492	
1	1	1	0	0	492	
2	1	1	0	0	491	
3	1	1	0	0	491	
4	1	1	0	0	492	
5	1	1	0	0	491	
6	1	1	0	0	492	
7	1	1	0	0	493	
8	1	1	0	0	492	
9	1	1	0	0	492	
10	1	1	0	0	493	
11	1	1	0	0	493	
12	1	1	0	0	494	
13	1	1	0	0	493	
14	1	1	0	0	493	
15	1	1	0	0	494	
0	1	1	0	0	495	
1	1	1	0	0	495	
2	1	1	0	0	496	
3	1	1	0	0	496	
4	1	1	0	0	496	
5	1	1	0	0	496	
6	1	1	0	0	497	
7	1	1	0	0	498	
8	1	1	0	0	498	
9	1	1	0	0	499	
10	1	1	0	0	499	
11	1	1	0	0	500	
12	1	1	0	0	500	
13	1	1	0	0	501	
14	1	1	0	0	502	
15	1	1	0	0	502	
0	1	1	0	0	503	
1	1	1	0	0	504	
2	1	1	0	0	504	
3	1	1	0	0	505	
4	1	1	0	0	506	
5	1	1	0	0	507	
6	1	1	0	0	507	
7	1	1	0	0	508	
8	1	1	0	0	508	
9	1	1	0	0	509	
10	1	1	0	0	511	
11	1	1	0	0	511	
12	1	1	0	0	512	
13	1	1	0	0	513	
14	1	1	0	0	515	
15	1	1	0	0	515	
0	1	1	0	0	517	
1	1	1	0	0	518	
2	1	1	0	0	519	
3	1	1	0	0	520	
4	1	1	0	0	522	
5	1	1	0	0	523	
6	1	1	0	0	524	
7	1	1	0	0	525	
8	1	1	0	0	527	
9	1	1	0	0	528	
10	1	1	0	0	530	
11	1	1	0	0	531	
12	1	1	0	0	532	
13	1	1	0	0	534	
14	1	1	0	0	535	
15	1	1	0	0	536	
0	1	1	0	0	537	
1	1	1	0	0	539	
2	1	1	0	0	540	
3	1	1	0	0	542	
4	1	1	0	0	543	
5	1	1	0	0	545	
6	1	1	0	0	546	
7	1	1	0	0	547	
8	1	1	0	0	548	
9	1	1	0	0	551	
10	1	1	0	0	551	
11	1	1	0	0	553	
12	1	1	0	0	554	
13	1	1	0	0	556	
14	1	1	0	0	557	
15	1	1	0	0	558	
0	1	1	0	0	560	
1	1	1	0	0	561	
2	1	1	0	0	562	
3	1	1	0	0	563	
4	1	1	0	0	564	
5	1	1	0	0	566	
6	1	1	0	0	568	
7	1	1	0	0	568	
8	1	1	0	0	570	
9	1	1	0	0	571	
10	1	1	0	0	573	
11	1	1	0	0	573	
12	1	1	0	0	575	
13	1	1	0	0	576	
14	1	1	0	0	577	
15	1	1	0	0	577	
0	1	1	0	0	579	
1	1	1	0	0	580	
2	1	1	0	0	580	
3	1	1	0	0	582	
4	1	1	0	0	583	
5	1	1	0	0	584	
6	1	1	0	0	584	
7	1	1	0	0	586	
8	1	1	0	0	586	
9	1	1	0	0	587	
10	1	1	0	0	588	
11	1	1	0	0	589	
12	1	1	0	0	590	
13	1	1	0	0	590	
14	1	1	0	0	590	
15	1	1	0	0	591	
0	1	1	0	0	591	
1	1	1	0	0	591	
2	1	1	0	0	591	
3	1	1	0	0	592	
4	1	1	0	0	593	
5	1	1	0	0	592	
6	1	1	0	0	593	
7	1	1	0	0	593	
8	1	1	0	0	594	
9	1	1	0	0	594	
10	1	1	0	0	594	
11	1	1	0	0	594	
12	1	1	0	0	595	
13	1	1	0	0	595	
14	1	1	0	0	595	
15	1	1	0	0	595	
0	1	1	0	0	595	
1	1	1	0	0	594	
2	1	1	0	0	595	
3	1	1	0	0	595	
4	1	1	0	0	594	
5	1	1	0	0	594	
6	1	1	0	0	594	
7	1	1	0	0	593	
8	1	1	0	0	593	
9	1	1	0	0	593	
10	1	1	0	0	593	
11	1	1	0	0	592	
12	1	1	0	0	591	
13	1	1	0	0	591	
14	1	1	0	0	590	
15	1	1	0	0	590	
0	1	1	0	0	589	
1	1	1	0	0	588	
2	1	1	0	0	588	
3	1	1	0	0	588	
4	1	1	0	0	587	
5	1	1	0	0	586	
6	1	1	0	0	585	
7	1	1	0	0	585	
8	1	1	0	0	584	
9	1	1	0	0	583	
10	1	1	0	0	583	
11	1	1	0	0	581	
12	1	1	0	0	581	
13	1	1	0	0	579	
14	1	1	0	0	579	
15	1	1	0	0	578	
0	1	1	0	0	578	
1	1	1	0	0	576	
2	1	1	0	0	575	
3	1	1	0	0	575	
4	1	1	0	0	573	
5	1	1	0	0	572	
6	1	1	0	0	571	
7	1	1	0	0	570	
8	1	1	0	0	569	
9	1	1	0	0	568	
10	1	1	0	0	567	
11	1	1	0	0	567	
12	1	1	0	0	565	
13	1	1	0	0	564	
14	1	1	0	0	563	
15	1	1	0	0	562	
0	1	1	0	0	560	
1	1	1	0	0	560	
2	1	1	0	0	559	
3	1	1	0	0	558	
4	1	1	0	0	556	
5	1	1	0	0	555	
6	1	1	0	0	554	
7	1	1	0	0	552	
8	1	1	0	0	551	
9	1	1	0	0	550	
10	1	1	0	0	549	
11	1	1	0	0	548	
12	1	1	0	0	547	
13	1	1	0	0	546	
14	1	1	0	0	545	
15	1	1	0	0	543	
0	1	1	0	0	542	
1	1	1	0	0	542	
2	1	1	0	0	540	
3	1	1	0	0	539	
4	1	1	0	0	537	
5	1	1	0	0	536	
6	1	1	0	0	535	
7	1	1	0	0	534	
8	1	1	0	0	533	
9	1	1	0	0	531	
10	1	1	0	0	531	
11	1	1	0	0	529	
12	1	1	0	0	527	
13	1	1	0	0	527	
14	1	1	0	0	525	
15	1	1	0	0	524	
0	1	1	0	0	523	
1	1	1	0	0	522	
2	1	1	0	0	520	
3	1	1	0	0	519	
4	1	1	0	0	519	
5	1	1	0	0	517	
6	1	1	0	0	515	
7	1	1	0	0	514	
8	1	1	0	0	513	
9	1	1	0	0	513	
10	1	1	0	0	512	
11	1	1	0	0	511	
12	1	1	0	0	509	
13	1	1	0	0	509	
14	1	1	0	0	508	
15	1	1	0	0	507	
0	1	1	0	0	505	
1	1	1	0	0	504	
2	1	1	0	0	504	
3	1	1	0	0	503	
4	1	1	0	0	502	
5	1	1	0	0	501	
6	1	1	0	0	499	
7	1	1	0	0	499	
8	1	1	0	0	498	
9	1	1	0	0	498	
10	1	1	0	0	496	
11	1	1	0	0	496	
12	1	1	0	0	494	
13	1	1	0	0	493	
14	1	1	0	0	493	
15	1	1	0	0	492	
0	1	1	0	0	492	
1	1	1	0	0	491	
2	1	1	0	0	489	
3	1	1	0	0	488	
4	1	1	0	0	488	
5	1	1	0	0	487	
6	1	1	0	0	487	
7	1	1	0	0	486	
8	1	1	0	0	485	
9	1	1	0	0	485	
10	1	1	0	0	484	
11	1	1	0	0	483	
12	1	1	0	0	483	
13	1	1	0	0	482	
14	1	1	0	0	481	
15	1	1	0	0	481	
0	1	1	0	0	480	
1	1	1	0	0	479	
2	1	1	0	0	480	
3	1	1	0	0	479	
4	1	1	0	0	478	
5	1	1	0	0	478	
6	1	1	0	0	477	
7	1	1	0	0	477	
8	1	1	0	0	476	
9	1	1	0	0	476	
10	1	1	0	0	475	
11	1	1	0	0	475	
12	1	1	0	0	475	
13	1	1	0	0	475	
14	1	1	0	0	474	
15	1	1	0	0	474	
0	1	1	0	0	473	
1	1	1	0	0	473	
2	1	1	0	0	473	
3	1	1	0	0	472	
4	1	1	0	0	472	
5	1	1	0	0	472	
6	1	1	0	0	472	
7	1	1	0	0	471	
8	1	1	0	0	471	
9	1	1	0	0	471	
10	1	1	0	0	471	
11	1	1	0	0	471	
12	1	1	0	0	470	
13	1	1	0	0	470	
14	1	1	0	0	471	
15	1	1	0	0	470	
0	1	1	0	0	471	
1	1	1	0	0	470	
2	1	1	0	0	470	
3	1	1	0	0	471	
4	1	1	0	0	470	
5	1	1	0	0	470	
6	1	1	0	0	470	
7	1	1	0	0	471	
8	1	1	0	0	471	
9	1	1	0	0	471	
10	1	1	0	0	471	
11	1	1	0	0	470	
12	1	1	0	0	471	
13	1	1	0	0	471	
14	1	1	0	0	471	
15	1	1	0	0	471	
0	1	1	0	0	471	
1	1	1	0	0	471	
2	1	1	0	0	471	
3	1	1	0	0	472	
4	1	1	0	0	472	
5	1	1	0	0	472	
6	1	1	0	0	472	
7	1	1	0	0	472	
8	1	1	0	0	473	
9	1	1	0	0	473	
10	1	1	0	0	474	
11	1	1	0	0	473	
12	1	1	0	0	474	
13	1	1	0	0	475	
14	1	1	0	0	475	
15	1	1	0	0	475	
0	1	1	0	0	476	
1	1	1	0	0	476	
2	1	1	0	0	476	
3	1	1	0	0	476	
4	1	1	0	0	477	
5	1	1	0	0	477	
6	1	1	0	0	477	
7	1	1	0	0	477	
8	1	1	0	0	478	
9	1	1	0	0	478	
10	1	1	0	0	479	
11	1	1	0	0	480	
12	1	1	0	0	480	
13	1	1	0	0	480	
14	1	1	0	0	480	
15	1	1	0	0	480	
0	1	1	0	0	481	
1	1	1	0	0	481	
2	1	1	0	0	482	
3	1	1	0	0	482	
4	1	1	0	0	483	
5	1	1	0	0	483	
6	1	1	0	0	483	
7	1	1	0	0	484	
8	1	1	0	0	484	
9	1	1	0	0	486	
10	1	1	0	0	486	
11	1	1	0	0	486	
12	1	1	0	0	487	
13	1	1	0	0	487	
14	1	1	0	0	487	
15	1	1	0	0	488	
0	1	1	0	0	488	
1	1	1	0	0	488	
2	1	1	0	0	490	
3	1	1	0	0	490	
4	1	1	0	0	491	
5	1	1	0	0	491	
6	1	1	0	0	492	
7	1	1	0	0	492	
8	1	1	0	0	492	
9	1	1	0	0	492	
10	1	1	0	0	493	
11	1	1	0	0	494	
12	1	1	0	0	494	
13	1	1	0	0	494	
14	1	1	0	0	495	
15	1	1	0	0	495	
0	1	1	0	0	496	
1	1	1	0	0	496	
2	1	1	0	0	497	
3	1	1	0	0	497	
4	1	1	0	0	497	
5	1	1	0	0	497	
6	1	1	0	0	498	
7	1	1	0	0	498	
8	1	1	0	0	498	
9	1	1	0	0	498	
10	1	1	0	0	499	
11	1	1	0	0	499	
12	1	1	0	0	499	
13	1	1	0	0	500	
14	1	1	0	0	500	
15	1	1	0	0	501	
0	1	1	0	0	501	
1	1	1	0	0	502	
2	1	1	0	0	501	
3	1	1	0	0	502	
4	1	1	0	0	501	
5	1	1	0	0	502	
6	1	1	0	0	502	
7	1	1	0	0	503	
8	1	1	0	0	503	
9	1	1	0	0	504	
10	1	1	0	0	503	
11	1	1	0	0	504	
12	1	1	0	0	504	
13	1	1	0	0	504	
14	1	1	0	0	504	
15	1	1	0	0	505	
0	1	1	0	0	505	
1	1	1	0	0	505	
2	1	1	0	0	505	
3	1	1	0	0	506	
4	1	1	0	0	506	
5	1	1	0	0	506	
6	1	1	0	0	507	
7	1	1	0	0	507	
8	1	1	0	0	507	
9	1	1	0	0	507	
10	1	1	0	0	508	
11	1	1	0	0	508	
12	1	1	0	0	508	
13	1	1	0	0	508	
14	1	1	0	0	508	
15	1	1	0	0	508	
0	1	1	0	0	508	
1	1	1	0	0	508	
2	1	1	0	0	508	
3	1	1	0	0	508	
4	1	1	0	0	509	
5	1	1	0	0	508	
6	1	1	0	0	508	
7	1	1	0	0	509	
8	1	1	0	0	509	
9	1	1	0	0	509	
10	1	1	0	0	509	
11	1	1	0	0	508	
12	1	1	0	0	509	
13	1	1	0	0	509	
14	1	1	0	0	509	
15	1	1	0	0	508	
0	1	1	0	0	509	
1	1	1	0	0	509	
2	1	1	0	0	509	
3	1	1	0	0	509	
4	1	1	0	0	509	
5	1	1	0	0	509	
6	1	1	0	0	509	
7	1	1	0	0	509	
8	1	1	0	0	509	
9	1	1	0	0	509	
10	1	1	0	0	509	
11	1	1	0	0	509	
12	1	1	0	0	508	
13	1	1	0	0	508	
14	1	1	0	0	508	
15	1	1	0	0	509	
0	1	1	0	0	508	
1	1	1	0	0	508	
2	1	1	0	0	508	
3	1	1	0	0	508	
4	1	1	0	0	508	
5	1	1	0	0	508	
6	1	1	0	0	508	
7	1	1	0	0	508	
8	1	1	0	0	508	
9	1	1	0	0	508	
10	1	1	0	0	508	
11	1	1	0	0	508	
12	1	1	0	0	508	
13	1	1	0	0	507	
14	1	1	0	0	507	
15	1	1	0	0	507	
0	1	1	0	0	508	
1	1	1	0	0	507	
2	1	1	0	0	507	
3	1	1	0	0	507	
4	1	1	0	0	507	
5	1	1	0	0	507	
6	1	1	0	0	507	
7	1	1	0	0	506	
8	1	1	0	0	506	
9	1	1	0	0	507	
10	1	1	0	0	507	
11	1	1	0	0	506	
12	1	1	0	0	506	
13	1	1	0	0	506	
14	1	1	0	0	506	
15	1	1	0	0	506	
0	1	1	0	0	506	
1	1	1	0	0	505	
2	1	1	0	0	505	
3	1	1	0	0	506	
4	1	1	0	0	505	
5	1	1	0	0	505	
6	1	1	0	0	505	
7	1	1	0	0	504	
8	1	1	0	0	505	
9	1	1	0	0	505	
10	1	1	0	0	505	
11	1	1	0	0	505	
12	1	1	0	0	504	
13	1	1	0	0	504	
14	1	1	0	0	504	
15	1	1	0	0	504	
0	1	1	0	0	504	
1	1	1	0	0	504	
2	1	1	0	0	504	
3	1	1	0	0	503	
4	1	1	0	0	504	
5	1	1	0	0	504	
6	1	1	0	0	503	
7	1	1	0	0	504	
8	1	1	0	0	503	
9	1	1	0	0	503	
10	1	1	0	0	503	
11	1	1	0	0	503	
12	1	1	0	0	503	
13	1	1	0	0	504	
14	1	1	0	0	503	
15	1	1	0	0	502	
0	1	1	0	0	502	
1	1	1	0	0	502	
2	1	1	0	0	502	
3	1	1	0	0	502	
4	1	1	0	0	502	
5	1	1	0	0	502	
6	1	1	0	0	501	
7	1	1	0	0	502	
8	1	1	0	0	502	
9	1	1	0	0	501	
10	1	1	0	0	502	
11	1	1	0	0	501	
12	1	1	0	0	501	
13	1	1	0	0	501	
14	1	1	0	0	501	
15	1	1	0	0	500	
0	1	1	0	0	501	
1	1	1	0	0	500	
2	1	1	0	0	500	
3	1	1	0	0	500	
4	1	1	0	0	500	
5	1	1	0	0	500	
6	1	1	0	0	500	
7	1	1	0	0	499	
8	1	1	0	0	499	
9	1	1	0	0	499	
10	1	1	0	0	499	
11	1	1	0	0	499	
12	1	1	0	0	499	
13	1	1	0	0	498	
14	1	1	0	0	498	
15	1	1	0	0	498	
0	1	1	0	0	497	
1	1	1	0	0	497	
2	1	1	0	0	497	
3	1	1	0	0	497	
4	1	1	0	0	497	
5	1	1	0	0	497	
6	1	1	0	0	497	
7	1	1	0	0	496	
8	1	1	0	0	496	
9	1	1	0	0	496	
10	1	1	0	0	496	
11	1	1	0	0	495	
12	1	1	0	0	495	
13	1	1	0	0	495	
14	1	1	0	0	494	
15	1	1	0	0	494	
0	1	1	0	0	494	
1	1	1	0	0	493	
2	1	1	0	0	494	
3	1	1	0	0	493	
4	1	1	0	0	493	
5	1	1	0	0	493	
6	1	1	0	0	492	
7	1	1	0	0	492	
8	1	1	0	0	492	
9	1	1	0	0	492	
10	1	1	0	0	492	
11	1	1	0	0	491	
12	1	1	0	0	491	
13	1	1	0	0	492	
14	1	1	0	0	491	
15	1	1	0	0	491	
0	1	1	0	0	490	
1	1	1	0	0	491	
2	1	1	0	0	490	
3	1	1	0	0	491	
4	1	1	0	0	491	
5	1	1	0	0	489	
6	1	1	0	0	489	
7	1	1	0	0	489	
8	1	1	0	0	489	
9	1	1	0	0	489	
10	1	1	0	0	489	
11	1	1	0	0	488	
12	1	1	0	0	489	
13	1	1	0	0	488	
14	1	1	0	0	488	
15	1	1	0	0	487	
0	1	1	0	0	487	
1	1	1	0	0	487	
2	1	1	0	0	487	
3	1	1	0	0	487	
4	1	1	0	0	487	
5	1	1	0	0	487	
6	1	1	0	0	486	
7	1	1	0	0	486	
8	1	1	0	0	487	
9	1	1	0	0	486	
10	1	1	0	0	486	
11	1	1	0	0	486	
12	1	1	0	0	486	
13	1	1	0	0	486	
14	1	1	0	0	486	
15	1	1	0	0	486	
0	1	1	0	0	486	
1	1	1	0	0	486	
2	1	1	0	0	486	
3	1	1	0	0	486	
4	1	1	0	0	486	
5	1	1	0	0	487	
6	1	1	0	0	487	
7	1	1	0	0	487	
8	1	1	0	0	487	
9	1	1	0	0	487	
10	1	1	0	0	487	
11	1	1	0	0	487	
12	1	1	0	0	487	
13	1	1	0	0	487	
14	1	1	0	0	488	
15	1	1	0	0	489	
0	1	1	0	0	488	
1	1	1	0	0	489	
2	1	1	0	0	489	
3	1	1	0	0	490	
4	1	1	0	0	491	
5	1	1	0	0	491	
6	1	1	0	0	492	
7	1	1	0	0	492	
8	1	1	0	0	492	
9	1	1	0	0	492	
10	1	1	0	0	493	
11	1	1	0	0	494	
12	1	1	0	0	494	
13	1	1	0	0	494	
14	1	1	0	0	496	
15	1	1	0	0	496	
0	1	1	0	0	497	
1	1	1	0	0	497	
2	1	1	0	0	498	
3	1	1	0	0	500	
4	1	1	0	0	500	
5	1	1	0	0	501	
6	1	1	0	0	502	
7	1	1	0	0	503	
8	1	1	0	0	504	
9	1	1	0	0	505	
10	1	1	0	0	506	
11	1	1	0	0	507	
12	1	1	0	0	508	
13	1	1	0	0	509	
14	1	1	0	0	510	
15	1	1	0	0	511	
0	1	1	0	0	512	
1	1	1	0	0	513	
2	1	1	0	0	515	
3	1	1	0	0	515	
4	1	1	0	0	516	
5	1	1	0	0	518	
6	1	1	0	0	519	
7	1	1	0	0	520	
8	1	1	0	0	522	
9	1	1	0	0	524	
10	1	1	0	0	525	
11	1	1	0	0	526	
12	1	1	0	0	528	
13	1	1	0	0	529	
14	1	1	0	0	531	
15	1	1	0	0	532	
0	1	1	0	0	533	
1	1	1	0	0	534	
2	1	1	0	0	536	
3	1	1	0	0	537	
4	1	1	0	0	538	
5	1	1	0	0	540	
6	1	1	0	0	541	
7	1	1	0	0	543	
8	1	1	0	0	543	
9	1	1	0	0	545	
10	1	1	0	0	546	
11	1	1	0	0	547	
12	1	1	0	0	549	
13	1	1	0	0	551	
14	1	1	0	0	551	
15	1	1	0	0	553	
0	1	1	0	0	554	
1	1	1	0	0	556	
2	1	1	0	0	557	
3	1	1	0	0	558	
4	1	1	0	0	559	
5	1	1	0	0	561	
6	1	1	0	0	562	
7	1	1	0	0	563	
8	1	1	0	0	565	
9	1	1	0	0	566	
10	1	1	0	0	568	
11	1	1	0	0	568	
12	1	1	0	0	569	
13	1	1	0	0	570	
14	1	1	0	0	572	
15	1	1	0	0	573	
0	1	1	0	0	574	
1	1	1	0	0	575	
2	1	1	0	0	575	
3	1	1	0	0	577	
4	1	1	0	0	578	
5	1	1	0	0	579	
6	1	1	0	0	579	
7	1	1	0	0	580	
8	1	1	0	0	581	
9	1	1	0	0	582	
10	1	1	0	0	583	
11	1	1	0	0	583	
12	1	1	0	0	583	
13	1	1	0	0	585	
14	1	1	0	0	585	
15	1	1	0	0	586	
0	1	1	0	0	586	
1	1	1	0	0	587	
2	1	1	0	0	587	
3	1	1	0	0	588	
4	1	1	0	0	588	
5	1	1	0	0	588	
6	1	1	0	0	588	
7	1	1	0	0	588	
8	1	1	0	0	588	
9	1	1	0	0	589	
10	1	1	0	0	589	
11	1	1	0	0	589	
12	1	1	0	0	589	
13	1	1	0	0	590	
14	1	1	0	0	590	
15	1	1	0	0	590	
0	1	1	0	0	590	
1	1	1	0	0	590	
2	1	1	0	0	590	
3	1	1	0	0	590	
4	1	1	0	0	589	
5	1	1	0	0	590	
6	1	1	0	0	589	
7	1	1	0	0	588	
8	1	1	0	0	588	
9	1	1	0	0	588	
10	1	1	0	0	588	
11	1	1	0	0	588	
12	1	1	0	0	587	
13	1	1	0	0	587	
14	1	1	0	0	586	
15	1	1	0	0	585	
0	1	1	0	0	585	
1	1	1	0	0	584	
2	1	1	0	0	583	
3	1	1	0	0	583	
4	1	1	0	0	583	
5	1	1	0	0	582	
6	1	1	0	0	582	
7	1	1	0	0	580	
8	1	1	0	0	579	
9	1	1	0	0	579	
10	1	1	0	0	579	
11	1	1	0	0	577	
12	1	1	0	0	576	
13	1	1	0	0	576	
14	1	1	0	0	575	
15	1	1	0	0	574	
0	1	1	0	0	574	
1	1	1	0	0	572	
2	1	1	0	0	572	
3	1	1	0	0	571	
4	1	1	0	0	570	
5	1	1	0	0	569	
6	1	1	0	0	568	
7	1	1	0	0	568	
8	1	1	0	0	567	
9	1	1	0	0	566	
10	1	1	0	0	565	
11	1	1	0	0	564	
12	1	1	0	0	563	
13	1	1	0	0	562	
14	1	1	0	0	561	
15	1	1	0	0	560	
0	1	1	0	0	559	
1	1	1	0	0	558	
2	1	1	0	0	557	
3	1	1	0	0	556	
4	1	1	0	0	555	
5	1	1	0	0	554	
6	1	1	0	0	553	
7	1	1	0	0	551	
8	1	1	0	0	551	
9	1	1	0	0	549	
10	1	1	0	0	548	
11	1	1	0	0	547	
12	1	1	0	0	546	
13	1	1	0	0	545	
14	1	1	0	0	544	
15	1	1	0	0	543	
0	1	1	0	0	541	
1	1	1	0	0	540	
2	1	1	0	0	539	
3	1	1	0	0	538	
4	1	1	0	0	536	
5	1	1	0	0	535	
6	1	1	0	0	534	
7	1	1	0	0	532	
8	1	1	0	0	531	
9	1	1	0	0	530	
10	1	1	0	0	529	
11	1	1	0	0	528	
12	1	1	0	0	527	
13	1	1	0	0	525	
14	1	1	0	0	524	
15	1	1	0	0	523	
0	1	1	0	0	522	
1	1	1	0	0	521	
2	1	1	0	0	520	
3	1	1	0	0	519	
4	1	1	0	0	517	
5	1	1	0	0	516	
6	1	1	0	0	515	
7	1	1	0	0	514	
8	1	1	0	0	513	
9	1	1	0	0	512	
10	1	1	0	0	510	
11	1	1	0	0	510	
12	1	1	0	0	508	
13	1	1	0	0	508	
14	1	1	0	0	507	
15	1	1	0	0	505	
0	1	1	0	0	504	
1	1	1	0	0	504	
2	1	1	0	0	502	
3	1	1	0	0	501	
4	1	1	0	0	499	
5	1	1	0	0	499	
6	1	1	0	0	498	
7	1	1	0	0	497	
8	1	1	0	0	496	
9	1	1	0	0	494	
10	1	1	0	0	494	
11	1	1	0	0	492	
12	1	1	0	0	492	
13	1	1	0	0	491	
14	1	1	0	0	490	
15	1	1	0	0	489	
0	1	1	0	0	488	
1	1	1	0	0	488	
2	1	1	0	0	487	
3	1	1	0	0	486	
4	1	1	0	0	485	
5	1	1	0	0	484	
6	1	1	0	0	483	
7	1	1	0	0	483	
8	1	1	0	0	481	
9	1	1	0	0	481	
10	1	1	0	0	480	
11	1	1	0	0	479	
12	1	1	0	0	479	
13	1	1	0	0	478	
14	1	1	0	0	477	
15	1	1	0	0	477	
0	1	1	0	0	476	
1	1	1	0	0	475	
2	1	1	0	0	475	
3	1	1	0	0	474	
4	1	1	0	0	474	
5	1	1	0	0	473	
6	1	1	0	0	473	
7	1	1	0	0	472	
8	1	1	0	0	472	
9	1	1	0	0	471	
10	1	1	0	0	470	
11	1	1	0	0	470	
12	1	1	0	0	469	
13	1	1	0	0	469	
14	1	1	0	0	469	
15	1	1	0	0	469	
0	1	1	0	0	468	
1	1	1	0	0	468	
2	1	1	0	0	468	
3	1	1	0	0	467	
4	1	1	0	0	467	
5	1	1	0	0	467	
6	1	1	0	0	467	
7	1	1	0	0	467	
8	1	1	0	0	466	
9	1	1	0	0	466	
10	1	1	0	0	466	
11	1	1	0	0	466	
12	1	1	0	0	465	
13	1	1	0	0	465	
14	1	1	0	0	465	
15	1	1	0	0	465	
0	1	1	0	0	465	
1	1	1	0	0	464	
2	1	1	0	0	465	
3	1	1	0	0	464	
4	1	1	0	0	465	
5	1	1	0	0	464	
6	1	1	0	0	464	
7	1	1	0	0	464	
8	1	1	0	0	465	
9	1	1	0	0	464	
10	1	1	0	0	465	
11	1	1	0	0	465	
12	1	1	0	0	465	
13	1	1	0	0	465	
14	1	1	0	0	465	
15	1	1	0	0	465	
0	1	1	0	0	466	
1	1	1	0	0	466	
2	1	1	0	0	467	
3	1	1	0	0	466	
4	1	1	0	0	466	
5	1	1	0	0	467	
6	1	1	0	0	467	
7	1	1	0	0	467	
8	1	1	0	0	467	
9	1	1	0	0	467	
10	1	1	0	0	468	
11	1	1	0	0	468	
12	1	1	0	0	468	
13	1	1	0	0	469	
14	1	1	0	0	469	
15	1	1	0	0	469	
0	1	1	0	0	470	
1	1	1	0	0	470	
2	1	1	0	0	470	
3	1	1	0	0	470	
4	1	1	0	0	471	
5	1	1	0	0	471	
6	1	1	0	0	471	
7	1	1	0	0	472	
8	1	1	0	0	472	
9	1	1	0	0	472	
10	1	1	0	0	472	
11	1	1	0	0	472	
12	1	1	0	0	473	
13	1	1	0	0	474	
14	1	1	0	0	474	
15	1	1	0	0	474	
0	1	1	0	0	475	
1	1	1	0	0	476	
2	1	1	0	0	476	
3	1	1	0	0	476	
4	1	1	0	0	476	
5	1	1	0	0	478	
6	1	1	0	0	478	
7	1	1	0	0	478	
8	1	1	0	0	479	
9	1	1	0	0	479	
10	1	1	0	0	480	
11	1	1	0	0	480	
12	1	1	0	0	481	
13	1	1	0	0	481	
14	1	1	0	0	482	
15	1	1	0	0	482	
0	1	1	0	0	483	
1	1	1	0	0	483	
2	1	1	0	0	484	
3	1	1	0	0	484	
4	1	1	0	0	485	
5	1	1	0	0	486	
6	1	1	0	0	486	
7	1	1	0	0	487	
8	1	1	0	0	487	
9	1	1	0	0	488	
10	1	1	0	0	489	
11	1	1	0	0	489	
12	1	1	0	0	489	
13	1	1	0	0	489	
14	1	1	0	0	490	
15	1	1	0	0	490	
0	1	1	0	0	491	
1	1	1	0	0	491	
2	1	1	0	0	491	
3	1	1	0	0	492	
4	1	1	0	0	492	
5	1	1	0	0	493	
6	1	1	0	0	493	
7	1	1	0	0	493	
8	1	1	0	0	493	
9	1	1	0	0	494	
10	1	1	0	0	494	
11	1	1	0	0	495	
12	1	1	0	0	495	
13	1	1	0	0	495	
14	1	1	0	0	495	
15	1	1	0	0	496	
0	1	1	0	0	496	
1	1	1	0	0	497	
2	1	1	0	0	497	
3	1	1	0	0	498	
4	1	1	0	0	498	
5	1	1	0	0	498	
6	1	1	0	0	499	
7	1	1	0	0	499	
8	1	1	0	0	500	
9	1	1	0	0	500	
10	1	1	0	0	500	
11	1	1	0	0	501	
12	1	1	0	0	501	
13	1	1	0	0	501	
14	1	1	0	0	501	
15	1	1	0	0	502	
0	1	1	0	0	502	
1	1	1	0	0	502	
2	1	1	0	0	503	
3	1	1	0	0	503	
4	1	1	0	0	503	
5	1	1	0	0	504	
6	1	1	0	0	504	
7	1	1	0	0	504	
8	1	1	0	0	504	
9	1	1	0	0	504	
10	1	1	0	0	504	
11	1	1	0	0	504	
12	1	1	0	0	504	
13	1	1	0	0	504	
14	1	1	0	0	504	
15	1	1	0	0	504	
0	1	1	0	0	504	
1	1	1	0	0	505	
2	1	1	0	0	505	
3	1	1	0	0	505	
4	1	1	0	0	505	
5	1	1	0	0	505	
6	1	1	0	0	505	
7	1	1	0	0	505	
8	1	1	0	0	505	
9	1	1	0	0	506	
10	1	1	0	0	505	
11	1	1	0	0	506	
12	1	1	0	0	506	
13	1	1	0	0	506	
14	1	1	0	0	506	
15	1	1	0	0	507	
0	1	1	0	0	507	
1	1	1	0	0	506	
2	1	1	0	0	507	
3	1	1	0	0	507	
4	1	1	0	0	507	
5	1	1	0	0	506	
6	1	1	0	0	507	
7	1	1	0	0	507	
8	1	1	0	0	506	
9	1	1	0	0	507	
10	1	1	0	0	506	
11	1	1	0	0	505	
12	1	1	0	0	506	
13	1	1	0	0	507	
14	1	1	0	0	505	
15	1	1	0	0	506	
0	1	1	0	0	505	
1	1	1	0	0	505	
2	1	1	0	0	506	
3	1	1	0	0	505	
4	1	1	0	0	505	
5	1	1	0	0	505	
6	1	1	0	0	505	
7	1	1	0	0	505	
8	1	1	0	0	505	
9	1	1	0	0	505	
10	1	1	0	0	505	
11	1	1	0	0	505	
12	1	1	0	0	504	
13	1	1	0	0	504	
14	1	1	0	0	504	
15	1	1	0	0	504	
0	1	1	0	0	504	
1	1	1	0	0	504	
2	1	1	0	0	504	
3	1	1	0	0	504	
4	1	1	0	0	503	
5	1	1	0	0	503	
6	1	1	0	0	504	
7	1	1	0	0	503	
8	1	1	0	0	503	
9	1	1	0	0	503	
10	1	1	0	0	503	
11	1	1	0	0	503	
12	1	1	0	0	503	
13	1	1	0	0	503	
14	1	1	0	0	502	
15	1	1	0	0	503	
0	1	1	0	0	503	
1	1	1	0	0	503	
2	1	1	0	0	502	
3	1	1	0	0	502	
4	1	1	0	0	502	
5	1	1	0	0	502	
6	1	1	0	0	502	
7	1	1	0	0	502	
8	1	1	0	0	502	
9	1	1	0	0	502	
10	1	1	0	0	502	
11	1	1	0	0	502	
12	1	1	0	0	502	
13	1	1	0	0	502	
14	1	1	0	0	500	
15	1	1	0	0	500	
0	1	1	0	0	500	
1	1	1	0	0	500	
2	1	1	0	0	500	
3	1	1	0	0	500	
4	1	1	0	0	499	
5	1	1	0	0	500	
6	1	1	0	0	499	
7	1	1	0	0	500	
8	1	1	0	0	499	
9	1	1	0	0	499	
10	1	1	0	0	499	
11	1	1	0	0	499	
12	1	1	0	0	499	
13	1	1	0	0	499	
14	1	1	0	0	499	
15	1	1	0	0	499	
0	1	1	0	0	499	
1	1	1	0	0	500	
2	1	1	0	0	499	
3	1	1	0	0	499	
4	1	1	0	0	499	
5	1	1	0	0	499	
6	1	1	0	0	499	
7	1	1	0	0	499	
8	1	1	0	0	499	
9	1	1	0	0	499	
10	1	1	0	0	499	
11	1	1	0	0	498	
12	1	1	0	0	499	
13	1	1	0	0	499	
14	1	1	0	0	498	
15	1	1	0	0	498	
0	1	1	0	0	498	
1	1	1	0	0	498	
2	1	1	0	0	498	
3	1	1	0	0	497	
4	1	1	0	0	497	
5	1	1	0	0	497	
6	1	1	0	0	497	
7	1	1	0	0	497	
8	1	1	0	0	496	
9	1	1	0	0	497	
10	1	1	0	0	496	
11	1	1	0	0	496	
12	1	1	0	0	496	
13	1	1	0	0	496	
14	1	1	0	0	496	
15	1	1	0	0	496	
0	1	1	0	0	496	
1	1	1	0	0	497	
2	1	1	0	0	496	
3	1	1	0	0	496	
4	1	1	0	0	496	
5	1	1	0	0	496	
6	1	1	0	0	495	
7	1	1	0	0	496	
8	1	1	0	0	496	
9	1	1	0	0	495	
10	1	1	0	0	495	
11	1	1	0	0	495	
12	1	1	0	0	496	
13	1	1	0	0	495	
14	1	1	0	0	495	
15	1	1	0	0	495	
0	1	1	0	0	495	
1	1	1	0	0	495	
2	1	1	0	0	495	
3	1	1	0	0	495	
4	1	1	0	0	495	
5	1	1	0	0	494	
6	1	1	0	0	494	
7	1	1	0	0	494	
8	1	1	0	0	494	
9	1	1	0	0	494	
10	1	1	0	0	494	
11	1	1	0	0	494	
12	1	1	0	0	493	
13	1	1	0	0	494	
14	1	1	0	0	494	
15	1	1	0	0	494	
0	1	1	0	0	493	
1	1	1	0	0	493	
2	1	1	0	0	493	
3	1	1	0	0	494	
4	1	1	0	0	493	
5	1	1	0	0	493	
6	1	1	0	0	493	
7	1	1	0	0	494	
8	1	1	0	0	493	
9	1	1	0	0	493	
10	1	1	0	0	493	
11	1	1	0	0	493	
12	1	1	0	0	493	
13	1	1	0	0	493	
14	1	1	0	0	492	
15	1	1	0	0	493	
0	1	1	0	0	492	
1	1	1	0	0	493	
2	1	1	0	0	493	
3	1	1	0	0	493	
4	1	1	0	0	492	
5	1	1	0	0	493	
6	1	1	0	0	492	
7	1	1	0	0	493	
8	1	1	0	0	493	
9	1	1	0	0	492	
10	1	1	0	0	492	
11	1	1	0	0	493	
12	1	1	0	0	493	
13	1	1	0	0	493	
14	1	1	0	0	493	
15	1	1	0	0	493	
0	1	1	0	0	493	
1	1	1	0	0	492	
2	1	1	0	0	493	
3	1	1	0	0	493	
4	1	1	0	0	493	
5	1	1	0	0	492	
6	1	1	0	0	493	
7	1	1	0	0	492	
8	1	1	0	0	492	
9	1	1	0	0	493	
10	1	1	0	0	493	
11	1	1	0	0	493	
12	1	1	0	0	494	
13	1	1	0	0	494	
14	1	1	0	0	494	
15	1	1	0	0	494	
0	1	1	0	0	495	
1	1	1	0	0	496	
2	1	1	0	0	496	
3	1	1	0	0	496	
4	1	1	0	0	496	
5	1	1	0	0	497	
6	1	1	0	0	497	
7	1	1	0	0	497	
8	1	1	0	0	498	
9	1	1	0	0	499	
10	1	1	0	0	499	
11	1	1	0	0	499	
12	1	1	0	0	499	
13	1	1	0	0	500	
14	1	1	0	0	501	
15	1	1	0	0	502	
0	1	1	0	0	503	
1	1	1	0	0	504	
2	1	1	0	0	504	
3	1	1	0	0	505	
4	1	1	0	0	506	
5	1	1	0	0	507	
6	1	1	0	0	508	
7	1	1	0	0	509	
8	1	1	0	0	510	
9	1	1	0	0	510	
10	1	1	0	0	511	
11	1	1	0	0	512	
12	1	1	0	0	513	
13	1	1	0	0	513	
14	1	1	0	0	515	
15	1	1	0	0	516	
0	1	1	0	0	516	
1	1	1	0	0	518	
2	1	1	0	0	518	
3	1	1	0	0	519	
4	1	1	0	0	521	
5	1	1	0	0	522	
6	1	1	0	0	524	
7	1	1	0	0	525	
8	1	1	0	0	526	
9	1	1	0	0	527	
10	1	1	0	0	527	
11	1	1	0	0	529	
12	1	1	0	0	530	
13	1	1	0	0	531	
14	1	1	0	0	532	
15	1	1	0	0	534	
0	1	1	0	0	535	
1	1	1	0	0	536	
2	1	1	0	0	537	
3	1	1	0	0	539	
4	1	1	0	0	540	
5	1	1	0	0	540	
6	1	1	0	0	542	
7	1	1	0	0	543	
8	1	1	0	0	545	
9	1	1	0	0	546	
10	1	1	0	0	547	
11	1	1	0	0	548	
12	1	1	0	0	550	
13	1	1	0	0	551	
14	1	1	0	0	553	
15	1	1	0	0	554	
0	1	1	0	0	555	
1	1	1	0	0	556	
2	1	1	0	0	558	
3	1	1	0	0	559	
4	1	1	0	0	560	
5	1	1	0	0	561	
6	1	1	0	0	562	
7	1	1	0	0	563	
8	1	1	0	0	565	
9	1	1	0	0	566	
10	1	1	0	0	567	
11	1	1	0	0	568	
12	1	1	0	0	569	
13	1	1	0	0	569	
14	1	1	0	0	571	
15	1	1	0	0	572	
0	1	1	0	0	572	
1	1	1	0	0	573	
2	1	1	0	0	575	
3	1	1	0	0	575	
4	1	1	0	0	575	
5	1	1	0	0	577	
6	1	1	0	0	577	
7	1	1	0	0	579	
8	1	1	0	0	579	
9	1	1	0	0	580	
10	1	1	0	0	580	
11	1	1	0	0	581	
12	1	1	0	0	581	
13	1	1	0	0	582	
14	1	1	0	0	583	
15	1	1	0	0	583	
0	1	1	0	0	583	
1	1	1	0	0	584	
2	1	1	0	0	584	
3	1	1	0	0	585	
4	1	1	0	0	585	
5	1	1	0	0	585	
6	1	1	0	0	585	
7	1	1	0	0	586	
8	1	1	0	0	587	
9	1	1	0	0	587	
10	1	1	0	0	587	
11	1	1	0	0	587	
12	1	1	0	0	587	
13	1	1	0	0	588	
14	1	1	0	0	588	
15	1	1	0	0	587	
0	1	1	0	0	588	
1	1	1	0	0	588	
2	1	1	0	0	588	
3	1	1	0	0	588	
4	1	1	0	0	588	
5	1	1	0	0	588	
6	1	1	0	0	588	
7	1	1	0	0	587	
8	1	1	0	0	587	
9	1	1	0	0	586	
10	1	1	0	0	586	
11	1	1	0	0	585	
12	1	1	0	0	585	
13	1	1	0	0	585	
14	1	1	0	0	585	
15	1	1	0	0	583	
0	1	1	0	0	584	
1	1	1	0	0	583	
2	1	1	0	0	583	
3	1	1	0	0	583	
4	1	1	0	0	582	
5	1	1	0	0	581	
6	1	1	0	0	581	
7	1	1	0	0	580	
8	1	1	0	0	580	
9	1	1	0	0	579	
10	1	1	0	0	579	
11	1	1	0	0	578	
12	1	1	0	0	577	
13	1	1	0	0	577	
14	1	1	0	0	576	
15	1	1	0	0	575	
0	1	1	0	0	575	
1	1	1	0	0	574	
2	1	1	0	0	573	
3	1	1	0	0	572	
4	1	1	0	0	571	
5	1	1	0	0	570	
6	1	1	0	0	569	
7	1	1	0	0	569	
8	1	1	0	0	568	
9	1	1	0	0	567	
10	1	1	0	0	566	
11	1	1	0	0	565	
12	1	1	0	0	564	
13	1	1	0	0	563	
14	1	1	0	0	562	
15	1	1	0	0	561	
0	1	1	0	0	561	
1	1	1	0	0	559	
2	1	1	0	0	558	
3	1	1	0	0	558	
4	1	1	0	0	556	
5	1	1	0	0	555	
6	1	1	0	0	554	
7	1	1	0	0	552	
8	1	1	0	0	552	
9	1	1	0	0	551	
10	1	1	0	0	550	
11	1	1	0	0	549	
12	1	1	0	0	548	
13	1	1	0	0	547	
14	1	1	0	0	546	
15	1	1	0	0	545	
0	1	1	0	0	544	
1	1	1	0	0	543	
2	1	1	0	0	542	
3	1	1	0	0	540	
4	1	1	0	0	540	
5	1	1	0	0	538	
6	1	1	0	0	536	
7	1	1	0	0	536	
8	1	1	0	0	535	
9	1	1	0	0	534	
10	1	1	0	0	532	
11	1	1	0	0	531	
12	1	1	0	0	530	
13	1	1	0	0	529	
14	1	1	0	0	528	
15	1	1	0	0	527	
0	1	1	0	0	526	
1	1	1	0	0	524	
2	1	1	0	0	523	
3	1	1	0	0	521	
4	1	1	0	0	521	
5	1	1	0	0	519	
6	1	1	0	0	519	
7	1	1	0	0	518	
8	1	1	0	0	516	
9	1	1	0	0	515	
10	1	1	0	0	514	
11	1	1	0	0	513	
12	1	1	0	0	512	
13	1	1	0	0	511	
14	1	1	0	0	510	
15	1	1	0	0	508	
0	1	1	0	0	508	
1	1	1	0	0	506	
2	1	1	0	0	505	
3	1	1	0	0	504	
4	1	1	0	0	503	
5	1	1	0	0	503	
6	1	1	0	0	502	
7	1	1	0	0	501	
8	1	1	0	0	500	
9	1	1	0	0	499	
10	1	1	0	0	498	
11	1	1	0	0	497	
12	1	1	0	0	496	
13	1	1	0	0	495	
14	1	1	0	0	494	
15	1	1	0	0	493	
0	1	1	0	0	492	
1	1	1	0	0	492	
2	1	1	0	0	491	
3	1	1	0	0	490	
4	1	1	0	0	489	
5	1	1	0	0	488	
6	1	1	0	0	488	
7	1	1	0	0	487	
8	1	1	0	0	487	
9	1	1	0	0	485	
10	1	1	0	0	485	
11	1	1	0	0	484	
12	1	1	0	0	484	
13	1	1	0	0	483	
14	1	1	0	0	482	
15	1	1	0	0	481	
0	1	1	0	0	480	
1	1	1	0	0	480	
2	1	1	0	0	479	
3	1	1	0	0	479	
4	1	1	0	0	478	
5	1	1	0	0	478	
6	1	1	0	0	476	
7	1	1	0	0	477	
8	1	1	0	0	476	
9	1	1	0	0	476	
10	1	1	0	0	475	
11	1	1	0	0	475	
12	1	1	0	0	474	
13	1	1	0	0	474	
14	1	1	0	0	473	
15	1	1	0	0	473	
0	1	1	0	0	473	
1	1	1	0	0	472	
2	1	1	0	0	472	
3	1	1	0	0	472	
4	1	1	0	0	471	
5	1	1	0	0	472	
6	1	1	0	0	471	
7	1	1	0	0	471	
8	1	1	0	0	471	
9	1	1	0	0	471	
10	1	1	0	0	471	
11	1	1	0	0	470	
12	1	1	0	0	470	
13	1	1	0	0	470	
14	1	1	0	0	470	
15	1	1	0	0	470	
0	1	1	0	0	471	
1	1	1	0	0	470	
2	1	1	0	0	470	
3	1	1	0	0	470	
4	1	1	0	0	470	
5	1	1	0	0	471	
6	1	1	0	0	470	
7	1	1	0	0	470	
8	1	1	0	0	470	
9	1	1	0	0	470	
10	1	1	0	0	470	
11	1	1	0	0	470	
12	1	1	0	0	470	
13	1	1	0	0	470	
14	1	1	0	0	471	
15	1	1	0	0	471	
0	1	1	0	0	471	
1	1	1	0	0	471	
2	1	1	0	0	471	
3	1	1	0	0	471	
4	1	1	0	0	471	
5	1	1	0	0	472	
6	1	1	0	0	472	
7	1	1	0	0	472	
8	1	1	0	0	473	
9	1	1	0	0	473	
10	1	1	0	0	473	
11	1	1	0	0	474	
12	1	1	0	0	474	
13	1	1	0	0	474	
14	1	1	0	0	475	
15	1	1	0	0	475	
0	1	1	0	0	475	
1	1	1	0	0	476	
2	1	1	0	0	476	
3	1	1	0	0	476	
4	1	1	0	0	476	
5	1	1	0	0	477	
6	1	1	0	0	478	
7	1	1	0	0	478	
8	1	1	0	0	478	
9	1	1	0	0	479	
10	1	1	0	0	480	
11	1	1	0	0	480	
12	1	1	0	0	481	
13	1	1	0	0	481	
14	1	1	0	0	481	
15	1	1	0	0	482	
0	1	1	0	0	483	
1	1	1	0	0	483	
2	1	1	0	0	483	
3	1	1	0	0	484	
4	1	1	0	0	484	
5	1	1	0	0	485	
6	1	1	0	0	485	
7	1	1	0	0	486	
8	1	1	0	0	486	
9	1	1	0	0	487	
10	1	1	0	0	487	
11	1	1	0	0	487	
12	1	1	0	0	488	
13	1	1	0	0	488	
14	1	1	0	0	489	
15	1	1	0	0	489	
0	1	1	0	0	490	
1	1	1	0	0	491	
2	1	1	0	0	491	
3	1	1	0	0	491	
4	1	1	0	0	492	
5	1	1	0	0	492	
6	1	1	0	0	492	
7	1	1	0	0	493	
8	1	1	0	0	494	
9	1	1	0	0	495	
10	1	1	0	0	494	
11	1	1	0	0	495	
12	1	1	0	0	495	
13	1	1	0	0	495	
14	1	1	0	0	496	
15	1	1	0	0	496	
0	1	1	0	0	497	
1	1	1	0	0	497	
2	1	1	0	0	497	
3	1	1	0	0	497	
4	1	1	0	0	498	
5	1	1	0	0	499	
6	1	1	0	0	499	
7	1	1	0	0	499	
8	1	1	0	0	499	
9	1	1	0	0	500	
10	1	1	0	0	500	
11	1	1	0	0	501	
12	1	1	0	0	501	
13	1	1	0	0	502	
14	1	1	0	0	502	
15	1	1	0	0	503	
0	1	1	0	0	503	
1	1	1	0	0	503	
2	1	1	0	0	504	
3	1	1	0	0	504	
4	1	1	0	0	504	
5	1	1	0	0	504	
6	1	1	0	0	505	
7	1	1	0	0	505	
8	1	1	0	0	505	
9	1	1	0	0	505	
10	1	1	0	0	506	
11	1	1	0	0	506	
12	1	1	0	0	506	
13	1	1	0	0	507	
14	1	1	0	0	507	
15	1	1	0	0	507	
0	1	1	0	0	507	
1	1	1	0	0	507	
2	1	1	0	0	507	
3	1	1	0	0	508	
4	1	1	0	0	508	
5	1	1	0	0	508	
6	1	1	0	0	508	
7	1	1	0	0	508	
8	1	1	0	0	508	
9	1	1	0	0	509	
10	1	1	0	0	509	
11	1	1	0	0	509	
12	1	1	0	0	510	
13	1	1	0	0	509	
14	1	1	0	0	509	
15	1	1	0	0	509	
0	1	1	0	0	510	
1	1	1	0	0	510	
2	1	1	0	0	510	
3	1	1	0	0	511	
4	1	1	0	0	511	
5	1	1	0	0	511	
6	1	1	0	0	510	
7	1	1	0	0	511	
8	1	1	0	0	510	
9	1	1	0	0	510	
10	1	1	0	0	510	
11	1	1	0	0	510	
12	1	1	0	0	510	
13	1	1	0	0	510	
14	1	1	0	0	511	
15	1	1	0	0	510	
0	1	1	0	0	510	
1	1	1	0	0	510	
2	1	1	0	0	510	
3	1	1	0	0	510	
4	1	1	0	0	510	
5	1	1	0	0	511	
6	1	1	0	0	510	
7	1	1	0	0	510	
8	1	1	0	0	510	
9	1	1	0	0	510	
10	1	1	0	0	510	
11	1	1	0	0	510	
12	1	1	0	0	510	
13	1	1	0	0	509	
14	1	1	0	0	510	
15	1	1	0	0	509	
0	1	1	0	0	509	
1	1	1	0	0	509	
2	1	1	0	0	509	
3	1	1	0	0	508	
4	1	1	0	0	508	
5	1	1	0	0	508	
6	1	1	0	0	508	
7	1	1	0	0	508	
8	1	1	0	0	508	
9	1	1	0	0	508	
10	1	1	0	0	508	
11	1	1	0	0	508	
12	1	1	0	0	508	
13	1	1	0	0	507	
14	1	1	0	0	508	
15	1	1	0	0	507	
0	1	1	0	0	507	
1	1	1	0	0	507	
2	1	1	0	0	507	
3	1	1	0	0	508	
4	1	1	0	0	507	
5	1	1	0	0	507	
6	1	1	0	0	506	
7	1	1	0	0	506	
8	1	1	0	0	506	
9	1	1	0	0	506	
10	1	1	0	0	506	
11	1	1	0	0	506	
12	1	1	0	0	505	
13	1	1	0	0	506	
14	1	1	0	0	505	
15	1	1	0	0	506	
0	1	1	0	0	505	
1	1	1	0	0	505	
2	1	1	0	0	505	
3	1	1	0	0	505	
4	1	1	0	0	505	
5	1	1	0	0	505	
6	1	1	0	0	505	
7	1	1	0	0	504	
8	1	1	0	0	504	
9	1	1	0	0	504	
10	1	1	0	0	504	
11	1	1	0	0	504	
12	1	1	0	0	504	
13	1	1	0	0	504	
14	1	1	0	0	504	
15	1	1	0	0	503	
0	1	1	0	0	503	
1	1	1	0	0	504	
2	1	1	0	0	503	
3	1	1	0	0	503	
4	1	1	0	0	503	
5	1	1	0	0	503	
6	1	1	0	0	503	
7	1	1	0	0	503	
8	1	1	0	0	503	
9	1	1	0	0	503	
10	1	1	0	0	503	
11	1	1	0	0	503	
12	1	1	0	0	502	
13	1	1	0	0	502	
14	1	1	0	0	502	
15	1	1	0	0	502	
0	1	1	0	0	502	
1	1	1	0	0	502	
2	1	1	0	0	501	
3	1	1	0	0	501	
4	1	1	0	0	501	
5	1	1	0	0	501	
6	1	1	0	0	501	
7	1	1	0	0	501	
8	1	1	0	0	501	
9	1	1	0	0	500	
10	1	1	0	0	500	
11	1	1	0	0	500	
12	1	1	0	0	499	
13	1	1	0	0	500	
14	1	1	0	0	499	
15	1	1	0	0	499	
0	1	1	0	0	499	
1	1	1	0	0	499	
2	1	1	0	0	499	
3	1	1	0	0	499	
4	1	1	0	0	499	
5	1	1	0	0	499	
6	1	1	0	0	498	
7	1	1	0	0	499	
8	1	1	0	0	498	
9	1	1	0	0	498	
10	1	1	0	0	498	
11	1	1	0	0	498	
12	1	1	0	0	497	
13	1	1	0	0	497	
14	1	1	0	0	497	
15	1	1	0	0	497	
0	1	1	0	0	498	
1	1	1	0	0	497	
2	1	1	0	0	497	
3	1	1	0	0	496	
4	1	1	0	0	497	
5	1	1	0	0	496	
6	1	1	0	0	496	
7	1	1	0	0	496	
8	1	1	0	0	496	
9	1	1	0	0	496	
10	1	1	0	0	496	
11	1	1	0	0	496	
12	1	1	0	0	496	
13	1	1	0	0	496	
14	1	1	0	0	495	
15	1	1	0	0	495	
0	1	1	0	0	495	
1	1	1	0	0	495	
2	1	1	0	0	494	
3	1	1	0	0	494	
4	1	1	0	0	494	
5	1	1	0	0	494	
6	1	1	0	0	494	
7	1	1	0	0	494	
8	1	1	0	0	494	
9	1	1	0	0	494	
10	1	1	0	0	493	
11	1	1	0	0	493	
12	1	1	0	0	493	
13	1	1	0	0	493	
14	1	1	0	0	494	
15	1	1	0	0	493	
0	1	1	0	0	493	
1	1	1	0	0	494	
2	1	1	0	0	493	
3	1	1	0	0	494	
4	1	1	0	0	494	
5	1	1	0	0	493	
6	1	1	0	0	494	
7	1	1	0	0	493	
8	1	1	0	0	493	
9	1	1	0	0	493	
10	1	1	0	0	493	
11	1	1	0	0	493	
12	1	1	0	0	493	
13	1	1	0	0	493	
14	1	1	0	0	494	
15	1	1	0	0	493	
0	1	1	0	0	493	
1	1	1	0	0	493	
2	1	1	0	0	493	
3	1	1	0	0	493	
4	1	1	0	0	493	
5	1	1	0	0	493	
6	1	1	0	0	493	
7	1	1	0	0	492	
8	1	1	0	0	493	
9	1	1	0	0	492	
10	1	1	0	0	492	
11	1	1	0	0	492	
12	1	1	0	0	492	
13	1	1	0	0	493	
14	1	1	0	0	492	
15	1	1	0	0	492	
0	1	1	0	0	492	
1	1	1	0	0	492	
2	1	1	0	0	492	
3	1	1	0	0	493	
4	1	1	0	0	492	
5	1	1	0	0	493	
6	1	1	0	0	493	
7	1	1	0	0	493	
8	1	1	0	0	493	
9	1	1	0	0	493	
10	1	1	0	0	493	
11	1	1	0	0	494	
12	1	1	0	0	494	
13	1	1	0	0	494	
14	1	1	0	0	494	
15	1	1	0	0	495	
0	1	1	0	0	495	
1	1	1	0	0	495	
2	1	1	0	0	496	
3	1	1	0	0	496	
4	1	1	0	0	496	
5	1	1	0	0	496	
6	1	1	0	0	497	
7	1	1	0	0	497	
8	1	1	0	0	497	
9	1	1	0	0	498	
10	1	1	0	0	498	
11	1	1	0	0	498	
12	1	1	0	0	499	
13	1	1	0	0	499	
14	1	1	0	0	500	
15	1	1	0	0	500	
0	1	1	0	0	501	
1	1	1	0	0	501	
2	1	1	0	0	502	
3	1	1	0	0	503	
4	1	1	0	0	503	
5	1	1	0	0	503	
6	1	1	0	0	504	
7	1	1	0	0	504	
8	1	1	0	0	505	
9	1	1	0	0	506	
10	1	1	0	0	507	
11	1	1	0	0	508	
12	1	1	0	0	508	
13	1	1	0	0	509	
14	1	1	0	0	510	
15	1	1	0	0	511	
0	1	1	0	0	512	
1	1	1	0	0	512	
2	1	1	0	0	514	
3	1	1	0	0	515	
4	1	1	0	0	516	
5	1	1	0	0	517	
6	1	1	0	0	518	
7	1	1	0	0	519	
8	1	1	0	0	520	
9	1	1	0	0	521	
10	1	1	0	0	523	
11	1	1	0	0	524	
12	1	1	0	0	525	
13	1	1	0	0	526	
14	1	1	0	0	527	
15	1	1	0	0	529	
0	1	1	0	0	529	
1	1	1	0	0	531	
2	1	1	0	0	532	
3	1	1	0	0	533	
4	1	1	0	0	535	
5	1	1	0	0	536	
6	1	1	0	0	538	
7	1	1	0	0	539	
8	1	1	0	0	540	
9	1	1	0	0	541	
10	1	1	0	0	543	
11	1	1	0	0	543	
12	1	1	0	0	544	
13	1	1	0	0	546	
14	1	1	0	0	547	
15	1	1	0	0	549	
0	1	1	0	0	550	
1	1	1	0	0	551	
2	1	1	0	0	552	
3	1	1	0	0	554	
4	1	1	0	0	555	
5	1	1	0	0	556	
6	1	1	0	0	558	
7	1	1	0	0	559	
8	1	1	0	0	560	
9	1	1	0	0	561	
10	1	1	0	0	563	
11	1	1	0	0	563	
12	1	1	0	0	564	
13	1	1	0	0	565	
14	1	1	0	0	567	
15	1	1	0	0	568	
0	1	1	0	0	568	
1	1	1	0	0	570	
2	1	1	0	0	571	
3	1	1	0	0	572	
4	1	1	0	0	573	
5	1	1	0	0	574	
6	1	1	0	0	575	
7	1	1	0	0	576	
8	1	1	0	0	577	
9	1	1	0	0	578	
10	1	1	0	0	579	
11	1	1	0	0	579	
12	1	1	0	0	580	
13	1	1	0	0	581	
14	1	1	0	0	582	
15	1	1	0	0	582	
0	1	1	0	0	583	
1	1	1	0	0	583	
2	1	1	0	0	584	
3	1	1	0	0	584	
4	1	1	0	0	585	
5	1	1	0	0	585	
6	1	1	0	0	585	
7	1	1	0	0	586	
8	1	1	0	0	587	
9	1	1	0	0	587	
10	1	1	0	0	587	
11	1	1	0	0	586	
12	1	1	0	0	587	
13	1	1	0	0	587	
14	1	1	0	0	587	
15	1	1	0	0	588	
0	1	1	0	0	587	
1	1	1	0	0	587	
2	1	1	0	0	586	
3	1	1	0	0	586	
4	1	1	0	0	586	
5	1	1	0	0	587	
6	1	1	0	0	585	
7	1	1	0	0	585	
8	1	1	0	0	585	
9	1	1	0	0	585	
10	1	1	0	0	585	
11	1	1	0	0	584	
12	1	1	0	0	583	
13	1	1	0	0	583	
14	1	1	0	0	583	
15	1	1	0	0	583	
0	1	1	0	0	583	
1	1	1	0	0	582	
2	1	1	0	0	581	
3	1	1	0	0	581	
4	1	1	0	0	580	
5	1	1	0	0	580	
6	1	1	0	0	579	
7	1	1	0	0	579	
8	1	1	0	0	577	
9	1	1	0	0	577	
10	1	1	0	0	576	
11	1	1	0	0	575	
12	1	1	0	0	575	
13	1	1	0	0	574	
14	1	1	0	0	574	
15	1	1	0	0	574	
0	1	1	0	0	572	
1	1	1	0	0	571	
2	1	1	0	0	570	
3	1	1	0	0	570	
4	1	1	0	0	568	
5	1	1	0	0	567	
6	1	1	0	0	567	
7	1	1	0	0	566	
8	1	1	0	0	565	
9	1	1	0	0	564	
10	1	1	0	0	563	
11	1	1	0	0	562	
12	1	1	0	0	560	
13	1	1	0	0	560	
14	1	1	0	0	559	
15	1	1	0	0	558	
0	1	1	0	0	556	
1	1	1	0	0	556	
2	1	1	0	0	555	
3	1	1	0	0	553	
4	1	1	0	0	552	
5	1	1	0	0	551	
6	1	1	0	0	550	
7	1	1	0	0	549	
8	1	1	0	0	548	
9	1	1	0	0	547	
10	1	1	0	0	545	
11	1	1	0	0	545	
12	1	1	0	0	543	
13	1	1	0	0	543	
14	1	1	0	0	541	
15	1	1	0	0	540	
0	1	1	0	0	539	
1	1	1	0	0	538	
2	1	1	0	0	537	
3	1	1	0	0	536	
4	1	1	0	0	535	
5	1	1	0	0	533	
6	1	1	0	0	532	
7	1	1	0	0	532	
8	1	1	0	0	531	
9	1	1	0	0	529	
10	1	1	0	0	528	
11	1	1	0	0	527	
12	1	1	0	0	526	
13	1	1	0	0	525	
14	1	1	0	0	524	
15	1	1	0	0	523	
0	1	1	0	0	521	
1	1	1	0	0	521	
2	1	1	0	0	520	
3	1	1	0	0	519	
4	1	1	0	0	517	
5	1	1	0	0	517	
6	1	1	0	0	515	
7	1	1	0	0	515	
8	1	1	0	0	513	
9	1	1	0	0	512	
10	1	1	0	0	511	
11	1	1	0	0	510	
12	1	1	0	0	509	
13	1	1	0	0	508	
14	1	1	0	0	507	
15	1	1	0	0	506	
0	1	1	0	0	504	
1	1	1	0	0	504	
2	1	1	0	0	503	
3	1	1	0	0	502	
4	1	1	0	0	501	
5	1	1	0	0	500	
6	1	1	0	0	499	
7	1	1	0	0	498	
8	1	1	0	0	497	
9	1	1	0	0	495	
10	1	1	0	0	495	
11	1	1	0	0	494	
12	1	1	0	0	493	
13	1	1	0	0	492	
14	1	1	0	0	491	
15	1	1	0	0	491	
0	1	1	0	0	490	
1	1	1	0	0	489	
2	1	1	0	0	487	
3	1	1	0	0	487	
4	1	1	0	0	487	
5	1	1	0	0	487	
6	1	1	0	0	485	
7	1	1	0	0	484	
8	1	1	0	0	484	
9	1	1	0	0	483	
10	1	1	0	0	483	
11	1	1	0	0	482	
12	1	1	0	0	481	
13	1	1	0	0	481	
14	1	1	0	0	480	
15	1	1	0	0	479	
0	1	1	0	0	479	
1	1	1	0	0	479	
2	1	1	0	0	479	
3	1	1	0	0	478	
4	1	1	0	0	477	
5	1	1	0	0	477	
6	1	1	0	0	477	
7	1	1	0	0	476	
8	1	1	0	0	476	
9	1	1	0	0	475	
10	1	1	0	0	475	
11	1	1	0	0	475	
12	1	1	0	0	475	
13	1	1	0	0	473	
14	1	1	0	0	473	
15	1	1	0	0	473	
0	1	1	0	0	473	
1	1	1	0	0	472	
2	1	1	0	0	472	
3	1	1	0	0	472	
4	1	1	0	0	472	
5	1	1	0	0	472	
6	1	1	0	0	472	
7	1	1	0	0	471	
8	1	1	0	0	471	
9	1	1	0	0	471	
10	1	1	0	0	471	
11	1	1	0	0	471	
12	1	1	0	0	471	
13	1	1	0	0	471	
14	1	1	0	0	470	
15	1	1	0	0	470	
0	1	1	0	0	471	
1	1	1	0	0	470	
2	1	1	0	0	470	
3	1	1	0	0	470	
4	1	1	0	0	470	
5	1	1	0	0	471	
6	1	1	0	0	471	
7	1	1	0	0	470	
8	1	1	0	0	471	
9	1	1	0	0	471	
10	1	1	0	0	471	
11	1	1	0	0	471	
12	1	1	0	0	471	
13	1	1	0	0	471	
14	1	1	0	0	471	
15	1	1	0	0	472	
0	1	1	0	0	472	
1	1	1	0	0	472	
2	1	1	0	0	472	
3	1	1	0	0	472	
4	1	1	0	0	472	
5	1	1	0	0	472	
6	1	1	0	0	472	
7	1	1	0	0	473	
8	1	1	0	0	473	
9	1	1	0	0	473	
10	1	1	0	0	472	
11	1	1	0	0	473	
12	1	1	0	0	473	
13	1	1	0	0	474	
14	1	1	0	0	474	
15	1	1	0	0	474	
0	1	1	0	0	474	
1	1	1	0	0	475	
2	1	1	0	0	476	
3	1	1	0	0	475	
4	1	1	0	0	476	
5	1	1	0	0	476	
6	1	1	0	0	476	
7	1	1	0	0	476	
8	1	1	0	0	477	
9	1	1	0	0	477	
10	1	1	0	0	478	
11	1	1	0	0	478	
12	1	1	0	0	479	
13	1	1	0	0	479	
14	1	1	0	0	479	
15	1	1	0	0	479	
0	1	1	0	0	480	
1	1	1	0	0	480	
2	1	1	0	0	481	
3	1	1	0	0	481	
4	1	1	0	0	482	
5	1	1	0	0	483	
6	1	1	0	0	483	
7	1	1	0	0	484	
8	1	1	0	0	485	
9	1	1	0	0	485	
10	1	1	0	0	486	
11	1	1	0	0	486	
12	1	1	0	0	487	
13	1	1	0	0	487	
14	1	1	0	0	487	
15	1	1	0	0	488	
0	1	1	0	0	488	
1	1	1	0	0	488	
2	1	1	0	0	489	
3	1	1	0	0	489	
4	1	1	0	0	490	
5	1	1	0	0	490	
6	1	1	0	0	491	
7	1	1	0	0	491	
8	1	1	0	0	491	
9	1	1	0	0	492	
10	1	1	0	0	492	
11	1	1	0	0	493	
12	1	1	0	0	493	
13	1	1	0	0	493	
14	1	1	0	0	494	
15	1	1	0	0	494	
0	1	1	0	0	495	
1	1	1	0	0	495	
2	1	1	0	0	496	
3	1	1	0	0	496	
4	1	1	0	0	496	
5	1	1	0	0	497	
6	1	1	0	0	497	
7	1	1	0	0	498	
8	1	1	0	0	497	
9	1	1	0	0	498	
10	1	1	0	0	498	
11	1	1	0	0	499	
12	1	1	0	0	499	
13	1	1	0	0	499	
14	1	1	0	0	499	
15	1	1	0	0	500	
0	1	1	0	0	501	
1	1	1	0	0	501	
2	1	1	0	0	501	
3	1	1	0	0	502	
4	1	1	0	0	502	
5	1	1	0	0	502	
6	1	1	0	0	503	
7	1	1	0	0	502	
8	1	1	0	0	502	
9	1	1	0	0	502	
10	1	1	0	0	503	
11	1	1	0	0	504	
12	1	1	0	0	504	
13	1	1	0	0	504	
14	1	1	0	0	504	
15	1	1	0	0	504	
0	1	1	0	0	504	
1	1	1	0	0	504	
2	1	1	0	0	504	
3	1	1	0	0	504	
4	1	1	0	0	505	
5	1	1	0	0	505	
6	1	1	0	0	505	
7	1	1	0	0	505	
8	1	1	0	0	505	
9	1	1	0	0	505	
10	1	1	0	0	506	
11	1	1	0	0	505	
12	1	1	0	0	505	
13	1	1	0	0	506	
14	1	1	0	0	506	
15	1	1	0	0	506	
0	1	1	0	0	506	
1	1	1	0	0	506	
2	1	1	0	0	507	
3	1	1	0	0	507	
4	1	1	0	0	507	
5	1	1	0	0	507	
6	1	1	0	0	507	
7	1	1	0	0	507	
8	1	1	0	0	507	
9	1	1	0	0	508	
10	1	1	0	0	507	
11	1	1	0	0	508	
12	1	1	0	0	508	
13	1	1	0	0	508	
14	1	1	0	0	508	
15	1	1	0	0	508	
0	1	1	0	0	508	
1	1	1	0	0	508	
2	1	1	0	0	508	
3	1	1	0	0	508	
4	1	1	0	0	508	
5	1	1	0	0	508	
6	1	1	0	0	508	
7	1	1	0	0	508	
8	1	1	0	0	507	
9	1	1	0	0	508	
10	1	1	0	0	507	
11	1	1	0	0	507	
12	1	1	0	0	507	
13	1	1	0	0	507	
14	1	1	0	0	507	
15	1	1	0	0	507	
0	1	1	0	0	507	
1	1	1	0	0	506	
2	1	1	0	0	507	
3	1	1	0	0	506	
4	1	1	0	0	506	
5	1	1	0	0	506	
6	1	1	0	0	506	
7	1	1	0	0	507	
8	1	1	0	0	506	
9	1	1	0	0	506	
10	1	1	0	0	505	
11	1	1	0	0	506	
12	1	1	0	0	506	
13	1	1	0	0	506	
14	1	1	0	0	506	
15	1	1	0	0	506	
0	1	1	0	0	506	
1	1	1	0	0	505	
2	1	1	0	0	505	
3	1	1	0	0	505	
4	1	1	0	0	505	
5	1	1	0	0	505	
6	1	1	0	0	505	
7	1	1	0	0	505	
8	1	1	0	0	504	
9	1	1	0	0	504	
10	1	1	0	0	504	
11	1	1	0	0	504	
12	1	1	0	0	504	
13	1	1	0	0	504	
14	1	1	0	0	504	
15	1	1	0	0	503	
0	1	1	0	0	503	
1	1	1	0	0	503	
2	1	1	0	0	502	
3	1	1	0	0	502	
4	1	1	0	0	502	
5	1	1	0	0	501	
6	1	1	0	0	501	
7	1	1	0	0	501	
8	1	1	0	0	501	
9	1	1	0	0	500	
10	1	1	0	0	500	
11	1	1	0	0	500	
12	1	1	0	0	500	
13	1	1	0	0	500	
14	1	1	0	0	499	
15	1	1	0	0	500	
0	1	1	0	0	499	
1	1	1	0	0	498	
2	1	1	0	0	499	
3	1	1	0	0	499	
4	1	1	0	0	499	
5	1	1	0	0	498	
6	1	1	0	0	498	
7	1	1	0	0	498	
8	1	1	0	0	497	
9	1	1	0	0	498	
10	1	1	0	0	497	
11	1	1	0	0	497	
12	1	1	0	0	497	
13	1	1	0	0	497	
14	1	1	0	0	497	
15	1	1	0	0	497	
0	1	1	0	0	497	
1	1	1	0	0	497	
2	1	1	0	0	496	
3	1	1	0	0	496	
4	1	1	0	0	496	
5	1	1	0	0	496	
6	1	1	0	0	496	
7	1	1	0	0	496	
8	1	1	0	0	495	
9	1	1	0	0	496	
10	1	1	0	0	496	
11	1	1	0	0	495	
12	1	1	0	0	495	
13	1	1	0	0	495	
14	1	1	0	0	495	
15	1	1	0	0	495	
0	1	1	0	0	495	
1	1	1	0	0	494	
2	1	1	0	0	494	
3	1	1	0	0	494	
4	1	1	0	0	494	
5	1	1	0	0	493	
6	1	1	0	0	493	
7	1	1	0	0	493	
8	1	1	0	0	493	
9	1	1	0	0	493	
10	1	1	0	0	493	
11	1	1	0	0	492	
12	1	1	0	0	492	
13	1	1	0	0	492	
14	1	1	0	0	492	
15	1	1	0	0	492	
0	1	1	0	0	492	
1	1	1	0	0	492	
2	1	1	0	0	492	
3	1	1	0	0	492	
4	1	1	0	0	492	
5	1	1	0	0	491	
6	1	1	0	0	492	
7	1	1	0	0	492	
8	1	1	0	0	491	
9	1	1	0	0	492	
10	1	1	0	0	491	
11	1	1	0	0	491	
12	1	1	0	0	491	
13	1	1	0	0	490	
14	1	1	0	0	490	
15	1	1	0	0	491	
0	1	1	0	0	491	
1	1	1	0	0	490	
2	1	1	0	0	490	
3	1	1	0	0	490	
4	1	1	0	0	491	
5	1	1	0	0	491	
6	1	1	0	0	491	
7	1	1	0	0	491	
8	1	1	0	0	491	
9	1	1	0	0	491	
10	1	1	0	0	491	
11	1	1	0	0	490	
12	1	1	0	0	491	
13	1	1	0	0	491	
14	1	1	0	0	491	
15	1	1	0	0	491	
0	1	1	0	0	490	
1	1	1	0	0	491	
2	1	1	0	0	491	
3	1	1	0	0	491	
4	1	1	0	0	491	
5	1	1	0	0	491	
6	1	1	0	0	491	
7	1	1	0	0	491	
8	1	1	0	0	491	
9	1	1	0	0	491	
10	1	1	0	0	491	
11	1	1	0	0	491	
12	1	1	0	0	491	
13	1	1	0	0	492	
14	1	1	0	0	492	
15	1	1	0	0	492	
0	1	1	0	0	492	
1	1	1	0	0	492	
2	1	1	0	0	492	
3	1	1	0	0	492	
4	1	1	0	0	492	
5	1	1	0	0	492	
6	1	1	0	0	492	
7	1	1	0	0	492	
8	1	1	0	0	492	
9	1	1	0	0	492	
10	1	1	0	0	492	
11	1	1	0	0	492	
12	1	1	0	0	492	
13	1	1	0	0	492	
14	1	1	0	0	493	
15	1	1	0	0	493	
0	1	1	0	0	493	
1	1	1	0	0	493	
2	1	1	0	0	493	
3	1	1	0	0	494	
4	1	1	0	0	494	
5	1	1	0	0	494	
6	1	1	0	0	494	
7	1	1	0	0	494	
8	1	1	0	0	495	
9	1	1	0	0	495	
10	1	1	0	0	495	
11	1	1	0	0	496	
12	1	1	0	0	496	
13	1	1	0	0	496	
14	1	1	0	0	496	
15	1	1	0	0	497	
0	1	1	0	0	497	
1	1	1	0	0	497	
2	1	1	0	0	497	
3	1	1	0	0	498	
4	1	1	0	0	499	
5	1	1	0	0	499	
6	1	1	0	0	499	
7	1	1	0	0	500	
8	1	1	0	0	500	
9	1	1	0	0	501	
10	1	1	0	0	502	
11	1	1	0	0	502	
12	1	1	0	0	502	
13	1	1	0	0	503	
14	1	1	0	0	503	
15	1	1	0	0	504	
0	1	1	0	0	505	
1	1	1	0	0	505	
2	1	1	0	0	505	
3	1	1	0	0	506	
4	1	1	0	0	507	
5	1	1	0	0	508	
6	1	1	0	0	509	
7	1	1	0	0	510	
8	1	1	0	0	511	
9	1	1	0	0	511	
10	1	1	0	0	512	
11	1	1	0	0	513	
12	1	1	0	0	514	
13	1	1	0	0	515	
14	1	1	0	0	516	
15	1	1	0	0	517	
0	1	1	0	0	518	
1	1	1	0	0	519	
2	1	1	0	0	520	
3	1	1	0	0	521	
4	1	1	0	0	522	
5	1	1	0	0	524	
6	1	1	0	0	524	
7	1	1	0	0	526	
8	1	1	0	0	527	
9	1	1	0	0	528	
10	1	1	0	0	529	
11	1	1	0	0	530	
12	1	1	0	0	532	
13	1	1	0	0	533	
14	1	1	0	0	534	
15	1	1	0	0	535	
0	1	1	0	0	536	
1	1	1	0	0	537	
2	1	1	0	0	538	
3	1	1	0	0	540	
4	1	1	0	0	541	
5	1	1	0	0	542	
6	1	1	0	0	543	
7	1	1	0	0	545	
8	1	1	0	0	545	
9	1	1	0	0	547	
10	1	1	0	0	548	
11	1	1	0	0	550	
12	1	1	0	0	551	
13	1	1	0	0	551	
14	1	1	0	0	553	
15	1	1	0	0	555	
0	1	1	0	0	555	
1	1	1	0	0	556	
2	1	1	0	0	557	
3	1	1	0	0	559	
4	1	1	0	0	560	
5	1	1	0	0	561	
6	1	1	0	0	562	
7	1	1	0	0	563	
8	1	1	0	0	564	
9	1	1	0	0	566	
10	1	1	0	0	567	
11	1	1	0	0	568	
12	1	1	0	0	569	
13	1	1	0	0	570	
14	1	1	0	0	571	
15	1	1	0	0	572	
0	1	1	0	0	572	
1	1	1	0	0	574	
2	1	1	0	0	575	
3	1	1	0	0	576	
4	1	1	0	0	576	
5	1	1	0	0	577	
6	1	1	0	0	578	
7	1	1	0	0	578	
8	1	1	0	0	579	
9	1	1	0	0	580	
10	1	1	0	0	581	
11	1	1	0	0	582	
12	1	1	0	0	582	
13	1	1	0	0	583	
14	1	1	0	0	583	
15	1	1	0	0	583	
0	1	1	0	0	583	
1	1	1	0	0	584	
2	1	1	0	0	585	
3	1	1	0	0	586	
4	1	1	0	0	586	
5	1	1	0	0	587	
6	1	1	0	0	588	
7	1	1	0	0	587	
8	1	1	0	0	588	
9	1	1	0	0	588	
10	1	1	0	0	588	
11	1	1	0	0	588	
12	1	1	0	0	588	
13	1	1	0	0	588	
14	1	1	0	0	588	
15	1	1	0	0	588	
0	1	1	0	0	588	
1	1	1	0	0	588	
2	1	1	0	0	589	
3	1	1	0	0	588	
4	1	1	0	0	588	
5	1	1	0	0	589	
6	1	1	0	0	588	
7	1	1	0	0	588	
8	1	1	0	0	588	
9	1	1	0	0	587	
10	1	1	0	0	587	
11	1	1	0	0	586	
12	1	1	0	0	586	
13	1	1	0	0	585	
14	1	1	0	0	585	
15	1	1	0	0	584	
0	1	1	0	0	584	
1	1	1	0	0	583	
2	1	1	0	0	583	
3	1	1	0	0	583	
4	1	1	0	0	582	
5	1	1	0	0	582	
6	1	1	0	0	580	
7	1	1	0	0	579	
8	1	1	0	0	580	
9	1	1	0	0	579	
10	1	1	0	0	577	
11	1	1	0	0	577	
12	1	1	0	0	576	
13	1	1	0	0	575	
14	1	1	0	0	575	
15	1	1	0	0	575	
0	1	1	0	0	573	
1	1	1	0	0	572	
2	1	1	0	0	572	
3	1	1	0	0	571	
4	1	1	0	0	570	
5	1	1	0	0	569	
6	1	1	0	0	568	
7	1	1	0	0	567	
8	1	1	0	0	566	
9	1	1	0	0	565	
10	1	1	0	0	564	
11	1	1	0	0	563	
12	1	1	0	0	561	
13	1	1	0	0	560	
14	1	1	0	0	559	
15	1	1	0	0	559	
0	1	1	0	0	557	
1	1	1	0	0	556	
2	1	1	0	0	555	
3	1	1	0	0	554	
4	1	1	0	0	553	
5	1	1	0	0	552	
6	1	1	0	0	551	
7	1	1	0	0	550	
8	1	1	0	0	548	
9	1	1	0	0	547	
10	1	1	0	0	547	
11	1	1	0	0	546	
12	1	1	0	0	545	
13	1	1	0	0	543	
14	1	1	0	0	542	
15	1	1	0	0	542	
0	1	1	0	0	540	
1	1	1	0	0	539	
2	1	1	0	0	538	
3	1	1	0	0	537	
4	1	1	0	0	536	
5	1	1	0	0	535	
6	1	1	0	0	534	
7	1	1	0	0	532	
8	1	1	0	0	532	
9	1	1	0	0	531	
10	1	1	0	0	529	
11	1	1	0	0	527	
12	1	1	0	0	527	
13	1	1	0	0	526	
14	1	1	0	0	524	
15	1	1	0	0	523	
0	1	1	0	0	522	
1	1	1	0	0	520	
2	1	1	0	0	519	
3	1	1	0	0	518	
4	1	1	0	0	517	
5	1	1	0	0	516	
6	1	1	0	0	515	
7	1	1	0	0	514	
8	1	1	0	0	512	
9	1	1	0	0	512	
10	1	1	0	0	510	
11	1	1	0	0	509	
12	1	1	0	0	508	
13	1	1	0	0	508	
14	1	1	0	0	507	
15	1	1	0	0	505	
0	1	1	0	0	504	
1	1	1	0	0	504	
2	1	1	0	0	503	
3	1	1	0	0	501	
4	1	1	0	0	500	
5	1	1	0	0	499	
6	1	1	0	0	499	
7	1	1	0	0	497	
8	1	1	0	0	497	
9	1	1	0	0	496	
10	1	1	0	0	495	
11	1	1	0	0	495	
12	1	1	0	0	493	
13	1	1	0	0	492	
14	1	1	0	0	492	
15	1	1	0	0	490	
0	1	1	0	0	490	
1	1	1	0	0	489	
2	1	1	0	0	488	
3	1	1	0	0	487	
4	1	1	0	0	487	
5	1	1	0	0	485	
6	1	1	0	0	485	
7	1	1	0	0	484	
8	1	1	0	0	484	
9	1	1	0	0	483	
10	1	1	0	0	482	
11	1	1	0	0	481	
12	1	1	0	0	481	
13	1	1	0	0	480	
14	1	1	0	0	480	
15	1	1	0	0	479	
0	1	1	0	0	478	
1	1	1	0	0	478	
2	1	1	0	0	478	
3	1	1	0	0	477	
4	1	1	0	0	477	
5	1	1	0	0	477	
6	1	1	0	0	476	
7	1	1	0	0	476	
8	1	1	0	0	475	
9	1	1	0	0	475	
10	1	1	0	0	475	
11	1	1	0	0	475	
12	1	1	0	0	474	
13	1	1	0	0	474	
14	1	1	0	0	474	
15	1	1	0	0	473	
0	1	1	0	0	473	
1	1	1	0	0	472	
2	1	1	0	0	472	
3	1	1	0	0	473	
4	1	1	0	0	473	
5	1	1	0	0	472	
6	1	1	0	0	473	
7	1	1	0	0	472	
8	1	1	0	0	472	
9	1	1	0	0	473	
10	1	1	0	0	472	
11	1	1	0	0	473	
12	1	1	0	0	472	
13	1	1	0	0	472	
14	1	1	0	0	473	
15	1	1	0	0	472	
0	1	1	0	0	472	
1	1	1	0	0	473	
2	1	1	0	0	472	
3	1	1	0	0	472	
4	1	1	0	0	472	
5	1	1	0	0	472	
6	1	1	0	0	472	
7	1	1	0	0	472	
8	1	1	0	0	473	
9	1	1	0	0	472	
10	1	1	0	0	473	
11	1	1	0	0	472	
12	1	1	0	0	473	
13	1	1	0	0	473	
14	1	1	0	0	473	
15	1	1	0	0	473	
0	1	1	0	0	473	
1	1	1	0	0	473	
2	1	1	0	0	473	
3	1	1	0	0	475	
4	1	1	0	0	474	
5	1	1	0	0	474	
6	1	1	0	0	475	
7	1	1	0	0	475	
8	1	1	0	0	475	
9	1	1	0	0	476	
10	1	1	0	0	476	
11	1	1	0	0	477	
12	1	1	0	0	476	
13	1	1	0	0	477	
14	1	1	0	0	478	
15	1	1	0	0	478	
0	1	1	0	0	478	
1	1	1	0	0	479	
2	1	1	0	0	479	
3	1	1	0	0	480	
4	1	1	0	0	480	
5	1	1	0	0	480	
6	1	1	0	0	481	
7	1	1	0	0	480	
8	1	1	0	0	481	
9	1	1	0	0	481	
10	1	1	0	0	482	
11	1	1	0	0	483	
12	1	1	0	0	483	
13	1	1	0	0	483	
14	1	1	0	0	483	
15	1	1	0	0	483	
0	1	1	0	0	484	
1	1	1	0	0	484	
2	1	1	0	0	485	
3	1	1	0	0	485	
4	1	1	0	0	486	
5	1	1	0	0	486	
6	1	1	0	0	486	
7	1	1	0	0	487	
8	1	1	0	0	487	
9	1	1	0	0	487	
10	1	1	0	0	488	
11	1	1	0	0	489	
12	1	1	0	0	489	
13	1	1	0	0	490	
14	1	1	0	0	491	
15	1	1	0	0	492	
0	1	1	0	0	492	
1	1	1	0	0	492	
2	1	1	0	0	492	
3	1	1	0	0	493	
4	1	1	0	0	493	
5	1	1	0	0	494	
6	1	1	0	0	494	
7	1	1	0	0	495	
8	1	1	0	0	496	
9	1	1	0	0	496	
10	1	1	0	0	496	
11	1	1	0	0	497	
12	1	1	0	0	497	
13	1	1	0	0	498	
14	1	1	0	0	498	
15	1	1	0	0	498	
0	1	1	0	0	499	
1	1	1	0	0	499	
2	1	1	0	0	499	
3	1	1	0	0	499	
4	1	1	0	0	500	
5	1	1	0	0	501	
6	1	1	0	0	501	
7	1	1	0	0	501	
8	1	1	0	0	502	
9	1	1	0	0	502	
10	1	1	0	0	503	
11	1	1	0	0	503	
12	1	1	0	0	503	
13	1	1	0	0	504	
14	1	1	0	0	504	
15	1	1	0	0	504	
0	1	1	0	0	504	
1	1	1	0	0	504	
2	1	1	0	0	504	
3	1	1	0	0	505	
4	1	1	0	0	505	
5	1	1	0	0	505	
6	1	1	0	0	506	
7	1	1	0	0	507	
8	1	1	0	0	507	
9	1	1	0	0	507	
10	1	1	0	0	507	
11	1	1	0	0	507	
12	1	1	0	0	508	
13	1	1	0	0	508	
14	1	1	0	0	508	
15	1	1	0	0	508	
0	1	1	0	0	508	
1	1	1	0	0	509	
2	1	1	0	0	509	
3	1	1	0	0	509	
4	1	1	0	0	510	
5	1	1	0	0	510	
6	1	1	0	0	510	
7	1	1	0	0	510	
8	1	1	0	0	510	
9	1	1	0	0	510	
10	1	1	0	0	511	
11	1	1	0	0	511	
12	1	1	0	0	511	
13	1	1	0	0	511	
14	1	1	0	0	511	
15	1	1	0	0	512	
0	1	1	0	0	512	
1	1	1	0	0	512	
2	1	1	0	0	512	
3	1	1	0	0	512	
4	1	1	0	0	512	
5	1	1	0	0	512	
6	1	1	0	0	512	
7	1	1	0	0	512	
8	1	1	0	0	512	
9	1	1	0	0	512	
10	1	1	0	0	511	
11	1	1	0	0	512	
12	1	1	0	0	512	
13	1	1	0	0	512	
14	1	1	0	0	512	
15	1	1	0	0	512	
0	1	1	0	0	512	
1	1	1	0	0	512	
2	1	1	0	0	512	
3	1	1	0	0	512	
4	1	1	0	0	512	
5	1	1	0	0	512	
6	1	1	0	0	512	
7	1	1	0	0	512	
8	1	1	0	0	512	
9	1	1	0	0	513	
10	1	1	0	0	512	
11	1	1	0	0	512	
12	1	1	0	0	512	
13	1	1	0	0	512	
14	1	1	0	0	512	
15	1	1	0	0	512	
0	1	1	0	0	512	
1	1	1	0	0	512	
2	1	1	0	0	512	
3	1	1	0	0	512	
4	1	1	0	0	512	
5	1	1	0	0	512	
6	1	1	0	0	512	
7	1	1	0	0	512	
8	1	1	0	0	512	
9	1	1	0	0	512	
10	1	1	0	0	512	
11	1	1	0	0	512	
12	1	1	0	0	512	
13	1	1	0	0	512	
14	1	1	0	0	512	
15	1	1	0	0	512	
0	1	1	0	0	512	
1	1	1	0	0	512	
2	1	1	0	0	511	
3	1	1	0	0	512	
4	1	1	0	0	512	
5	1	1	0	0	512	
6	1	1	0	0	512	
7	1	1	0	0	512	
8	1	1	0	0	512	
9	1	1	0	0	512	
10	1	1	0	0	512	
11	1	1	0	0	511	
12	1	1	0	0	511	
13	1	1	0	0	511	
14	1	1	0	0	511	
15	1	1	0	0	511	
0	1	1	0	0	511	
1	1	1	0	0	512	
2	1	1	0	0	512	
3	1	1	0	0	512	
4	1	1	0	0	511	
5	1	1	0	0	512	
6	1	1	0	0	512	
7	1	1	0	0	511	
8	1	1	0	0	511	
9	1	1	0	0	510	
10	1	1	0	0	511	
11	1	1	0	0	511	
12	1	1	0	0	511	
13	1	1	0	0	511	
14	1	1	0	0	511	
15	1	1	0	0	511	
0	1	1	0	0	511	
1	1	1	0	0	510	
2	1	1	0	0	511	
3	1	1	0	0	510	
4	1	1	0	0	510	
5	1	1	0	0	511	
6	1	1	0	0	510	
7	1	1	0	0	510	
8	1	1	0	0	510	
9	1	1	0	0	510	
10	1	1	0	0	510	
11	1	1	0	0	510	
12	1	1	0	0	510	
13	1	1	0	0	509	
14	1	1	0	0	510	
15	1	1	0	0	509	
0	1	1	0	0	509	
1	1	1	0	0	509	
2	1	1	0	0	508	
3	1	1	0	0	508	
4	1	1	0	0	509	
5	1	1	0	0	508	
6	1	1	0	0	508	
7	1	1	0	0	508	
8	1	1	0	0	508	
9	1	1	0	0	508	
10	1	1	0	0	507	
11	1	1	0	0	507	
12	1	1	0	0	507	
13	1	1	0	0	507	
14	1	1	0	0	507	
15	1	1	0	0	506	
0	1	1	0	0	506	
1	1	1	0	0	506	
2	1	1	0	0	506	
3	1	1	0	0	505	
4	1	1	0	0	505	
5	1	1	0	0	505	
6	1	1	0	0	505	
7	1	1	0	0	505	
8	1	1	0	0	504	
9	1	1	0	0	504	
10	1	1	0	0	504	
11	1	1	0	0	504	
12	1	1	0	0	504	
13	1	1	0	0	504	
14	1	1	0	0	503	
15	1	1	0	0	503	
0	1	1	0	0	503	
1	1	1	0	0	503	
2	1	1	0	0	502	
3	1	1	0	0	503	
4	1	1	0	0	501	
5	1	1	0	0	502	
6	1	1	0	0	500	
7	1	1	0	0	500	
8	1	1	0	0	500	
9	1	1	0	0	500	
10	1	1	0	0	499	
11	1	1	0	0	500	
12	1	1	0	0	499	
13	1	1	0	0	499	
14	1	1	0	0	499	
15	1	1	0	0	499	
0	1	1	0	0	499	
1	1	1	0	0	499	
2	1	1	0	0	499	
3	1	1	0	0	499	
4	1	1	0	0	499	
5	1	1	0	0	498	
6	1	1	0	0	498	
7	1	1	0	0	498	
8	1	1	0	0	497	
9	1	1	0	0	497	
10	1	1	0	0	497	
11	1	1	0	0	497	
12	1	1	0	0	497	
13	1	1	0	0	497	
14	1	1	0	0	497	
15	1	1	0	0	496	
0	1	1	0	0	496	
1	1	1	0	0	496	
2	1	1	0	0	496	
3	1	1	0	0	496	
4	1	1	0	0	496	
5	1	1	0	0	496	
6	1	1	0	0	496	
7	1	1	0	0	495	
8	1	1	0	0	496	
9	1	1	0	0	495	
10	1	1	0	0	496	
11	1	1	0	0	495	
12	1	1	0	0	495	
13	1	1	0	0	495	
14	1	1	0	0	495	
15	1	1	0	0	495	
0	1	1	0	0	495	
1	1	1	0	0	495	
2	1	1	0	0	495	
3	1	1	0	0	495	
4	1	1	0	0	495	
5	1	1	0	0	496	
6	1	1	0	0	496	
7	1	1	0	0	496	
8	1	1	0	0	496	
9	1	1	0	0	496	
10	1	1	0	0	496	
11	1	1	0	0	496	
12	1	1	0	0	496	
13	1	1	0	0	497	
14	1	1	0	0	497	
15	1	1	0	0	497	
0	1	1	0	0	497	
1	1	1	0	0	497	
2	1	1	0	0	497	
3	1	1	0	0	498	
4	1	1	0	0	498	
5	1	1	0	0	499	
6	1	1	0	0	498	
7	1	1	0	0	499	
8	1	1	0	0	499	
9	1	1	0	0	500	
10	1	1	0	0	500	
11	1	1	0	0	500	
12	1	1	0	0	501	
13	1	1	0	0	502	
14	1	1	0	0	503	
15	1	1	0	0	503	
0	1	1	0	0	503	
1	1	1	0	0	504	
2	1	1	0	0	504	
3	1	1	0	0	504	
4	1	1	0	0	505	
5	1	1	0	0	505	
6	1	1	0	0	507	
7	1	1	0	0	507	
8	1	1	0	0	507	
9	1	1	0	0	509	
10	1	1	0	0	508	
11	1	1	0	0	510	
12	1	1	0	0	510	
13	1	1	0	0	511	
14	1	1	0	0	512	
15	1	1	0	0	512	
0	1	1	0	0	513	
1	1	1	0	0	515	
2	1	1	0	0	515	
3	1	1	0	0	516	
4	1	1	0	0	517	
5	1	1	0	0	518	
6	1	1	0	0	519	
7	1	1	0	0	520	
8	1	1	0	0	521	
9	1	1	0	0	522	
10	1	1	0	0	524	
11	1	1	0	0	525	
12	1	1	0	0	525	
13	1	1	0	0	527	
14	1	1	0	0	527	
15	1	1	0	0	529	
0	1	1	0	0	531	
1	1	1	0	0	532	
2	1	1	0	0	532	
3	1	1	0	0	533	
4	1	1	0	0	535	
5	1	1	0	0	536	
6	1	1	0	0	537	
7	1	1	0	0	538	
8	1	1	0	0	540	
9	1	1	0	0	541	
10	1	1	0	0	542	
11	1	1	0	0	543	
12	1	1	0	0	544	
13	1	1	0	0	545	
14	1	1	0	0	547	
15	1	1	0	0	548	
0	1	1	0	0	549	
1	1	1	0	0	550	
2	1	1	0	0	551	
3	1	1	0	0	552	
4	1	1	0	0	553	
5	1	1	0	0	555	
6	1	1	0	0	556	
7	1	1	0	0	557	
8	1	1	0	0	558	
9	1	1	0	0	560	
10	1	1	0	0	560	
11	1	1	0	0	561	
12	1	1	0	0	562	
13	1	1	0	0	563	
14	1	1	0	0	564	
15	1	1	0	0	565	
0	1	1	0	0	566	
1	1	1	0	0	567	
2	1	1	0	0	568	
3	1	1	0	0	569	
4	1	1	0	0	571	
5	1	1	0	0	571	
6	1	1	0	0	572	
7	1	1	0	0	573	
8	1	1	0	0	574	
9	1	1	0	0	575	
10	1	1	0	0	575	
11	1	1	0	0	576	
12	1	1	0	0	577	
13	1	1	0	0	577	
14	1	1	0	0	578	
15	1	1	0	0	579	
0	1	1	0	0	579	
1	1	1	0	0	579	
2	1	1	0	0	580	
3	1	1	0	0	581	
4	1	1	0	0	582	
5	1	1	0	0	582	
6	1	1	0	0	582	
7	1	1	0	0	583	
8	1	1	0	0	583	
9	1	1	0	0	584	
10	1	1	0	0	584	
11	1	1	0	0	584	
12	1	1	0	0	584	
13	1	1	0	0	584	
14	1	1	0	0	585	
15	1	1	0	0	585	
0	1	1	0	0	585	
1	1	1	0	0	585	
2	1	1	0	0	585	
3	1	1	0	0	585	
4	1	1	0	0	585	
5	1	1	0	0	586	
6	1	1	0	0	585	
7	1	1	0	0	585	
8	1	1	0	0	585	
9	1	1	0	0	585	
10	1	1	0	0	585	
11	1	1	0	0	584	
12	1	1	0	0	585	
13	1	1	0	0	584	
14	1	1	0	0	584	
15	1	1	0	0	584	
0	1	1	0	0	583	
1	1	1	0	0	584	
2	1	1	0	0	583	
3	1	1	0	0	583	
4	1	1	0	0	582	
5	1	1	0	0	581	
6	1	1	0	0	580	
7	1	1	0	0	580	
8	1	1	0	0	580	
9	1	1	0	0	579	
10	1	1	0	0	578	
11	1	1	0	0	577	
12	1	1	0	0	577	
13	1	1	0	0	576	
14	1	1	0	0	575	
15	1	1	0	0	575	
0	1	1	0	0	574	
1	1	1	0	0	573	
2	1	1	0	0	572	
3	1	1	0	0	572	
4	1	1	0	0	570	
5	1	1	0	0	569	
6	1	1	0	0	569	
7	1	1	0	0	568	
8	1	1	0	0	567	
9	1	1	0	0	566	
10	1	1	0	0	565	
11	1	1	0	0	564	
12	1	1	0	0	563	
13	1	1	0	0	561	
14	1	1	0	0	562	
15	1	1	0	0	560	
0	1	1	0	0	559	
1	1	1	0	0	559	
2	1	1	0	0	557	
3	1	1	0	0	556	
4	1	1	0	0	556	
5	1	1	0	0	555	
6	1	1	0	0	553	
7	1	1	0	0	553	
8	1	1	0	0	551	
9	1	1	0	0	551	
10	1	1	0	0	550	
11	1	1	0	0	549	
12	1	1	0	0	547	
13	1	1	0	0	547	
14	1	1	0	0	545	
15	1	1	0	0	544	
0	1	1	0	0	544	
1	1	1	0	0	542	
2	1	1	0	0	540	
3	1	1	0	0	540	
4	1	1	0	0	539	
5	1	1	0	0	538	
6	1	1	0	0	536	
7	1	1	0	0	535	
8	1	1	0	0	534	
9	1	1	0	0	533	
10	1	1	0	0	532	
11	1	1	0	0	530	
12	1	1	0	0	530	
13	1	1	0	0	528	
14	1	1	0	0	528	
15	1	1	0	0	526	
0	1	1	0	0	525	
1	1	1	0	0	524	
2	1	1	0	0	523	
3	1	1	0	0	522	
4	1	1	0	0	521	
5	1	1	0	0	520	
6	1	1	0	0	519	
7	1	1	0	0	518	
8	1	1	0	0	517	
9	1	1	0	0	515	
10	1	1	0	0	514	
11	1	1	0	0	513	
12	1	1	0	0	512	
13	1	1	0	0	511	
14	1	1	0	0	510	
15	1	1	0	0	509	
0	1	1	0	0	508	
1	1	1	0	0	507	
2	1	1	0	0	506	
3	1	1	0	0	504	
4	1	1	0	0	504	
5	1	1	0	0	503	
6	1	1	0	0	502	
7	1	1	0	0	501	
8	1	1	0	0	500	
9	1	1	0	0	499	
10	1	1	0	0	498	
11	1	1	0	0	497	
12	1	1	0	0	496	
13	1	1	0	0	495	
14	1	1	0	0	494	
15	1	1	0	0	494	
0	1	1	0	0	493	
1	1	1	0	0	492	
2	1	1	0	0	491	
3	1	1	0	0	490	
4	1	1	0	0	489	
5	1	1	0	0	489	
6	1	1	0	0	488	
7	1	1	0	0	487	
8	1	1	0	0	487	
9	1	1	0	0	486	
10	1	1	0	0	486	
11	1	1	0	0	485	
12	1	1	0	0	484	
13	1	1	0	0	483	
14	1	1	0	0	483	
15	1	1	0	0	483	
0	1	1	0	0	482	
1	1	1	0	0	481	
2	1	1	0	0	481	
3	1	1	0	0	481	
4	1	1	0	0	480	
5	1	1	0	0	480	
6	1	1	0	0	480	
7	1	1	0	0	479	
8	1	1	0	0	479	
9	1	1	0	0	479	
10	1	1	0	0	478	
11	1	1	0	0	478	
12	1	1	0	0	477	
13	1	1	0	0	476	
14	1	1	0	0	476	
15	1	1	0	0	476	
0	1	1	0	0	476	
1	1	1	0	0	476	
2	1	1	0	0	476	
3	1	1	0	0	475	
4	1	1	0	0	475	
5	1	1	0	0	475	
6	1	1	0	0	475	
7	1	1	0	0	473	
8	1	1	0	0	474	
9	1	1	0	0	474	
10	1	1	0	0	473	
11	1	1	0	0	474	
12	1	1	0	0	473	
13	1	1	0	0	474	
14	1	1	0	0	473	
15	1	1	0	0	473	
0	1	1	0	0	473	
1	1	1	0	0	473	
2	1	1	0	0	473	
3	1	1	0	0	473	
4	1	1	0	0	472	
5	1	1	0	0	473	
6	1	1	0	0	473	
7	1	1	0	0	473	
8	1	1	0	0	473	
9	1	1	0	0	473	
10	1	1	0	0	473	
11	1	1	0	0	473	
12	1	1	0	0	474	
13	1	1	0	0	474	
14	1	1	0	0	474	
15	1	1	0	0	475	
0	1	1	0	0	475	
1	1	1	0	0	474	
2	1	1	0	0	475	
3	1	1	0	0	475	
4	1	1	0	0	475	
5	1	1	0	0	476	
6	1	1	0	0	476	
7	1	1	0	0	476	
8	1	1	0	0	477	
9	1	1	0	0	477	
10	1	1	0	0	478	
11	1	1	0	0	478	
12	1	1	0	0	478	
13	1	1	0	0	478	
14	1	1	0	0	479	
15	1	1	0	0	479	
0	1	1	0	0	479	
1	1	1	0	0	479	
2	1	1	0	0	480	
3	1	1	0	0	480	
4	1	1	0	0	480	
5	1	1	0	0	480	
6	1	1	0	0	480	
7	1	1	0	0	481	
8	1	1	0	0	481	
9	1	1	0	0	481	
10	1	1	0	0	482	
11	1	1	0	0	483	
12	1	1	0	0	483	
13	1	1	0	0	483	
14	1	1	0	0	483	
15	1	1	0	0	483	
0	1	1	0	0	484	
1	1	1	0	0	484	
2	1	1	0	0	484	
3	1	1	0	0	485	
4	1	1	0	0	485	
5	1	1	0	0	486	
6	1	1	0	0	486	
7	1	1	0	0	487	
8	1	1	0	0	487	
9	1	1	0	0	487	
10	1	1	0	0	487	
11	1	1	0	0	488	
12	1	1	0	0	489	
13	1	1	0	0	489	
14	1	1	0	0	490	
15	1	1	0	0	490	
0	1	1	0	0	491	
1	1	1	0	0	491	
2	1	1	0	0	491	
3	1	1	0	0	492	
4	1	1	0	0	492	
5	1	1	0	0	492	
6	1	1	0	0	493	
7	1	1	0	0	493	
8	1	1	0	0	493	
9	1	1	0	0	494	
10	1	1	0	0	494	
11	1	1	0	0	495	
12	1	1	0	0	496	
13	1	1	0	0	496	
14	1	1	0	0	496	
15	1	1	0	0	496	
0	1	1	0	0	497	
1	1	1	0	0	497	
2	1	1	0	0	498	
3	1	1	0	0	499	
4	1	1	0	0	499	
5	1	1	0	0	499	
6	1	1	0	0	500	
7	1	1	0	0	500	
8	1	1	0	0	501	
9	1	1	0	0	501	
10	1	1	0	0	502	
11	1	1	0	0	502	
12	1	1	0	0	502	
13	1	1	0	0	503	
14	1	1	0	0	503	
15	1	1	0	0	504	
0	1	1	0	0	504	
1	1	1	0	0	505	
2	1	1	0	0	504	
3	1	1	0	0	505	
4	1	1	0	0	505	
5	1	1	0	0	507	
6	1	1	0	0	507	
7	1	1	0	0	507	
8	1	1	0	0	507	
9	1	1	0	0	508	
10	1	1	0	0	508	
11	1	1	0	0	508	
12	1	1	0	0	508	
13	1	1	0	0	509	
14	1	1	0	0	509	
15	1	1	0	0	510	
0	1	1	0	0	510	
1	1	1	0	0	509	
2	1	1	0	0	510	
3	1	1	0	0	510	
4	1	1	0	0	510	
5	1	1	0	0	510	
6	1	1	0	0	511	
7	1	1	0	0	511	
8	1	1	0	0	510	
9	1	1	0	0	511	
10	1	1	0	0	511	
11	1	1	0	0	511	
12	1	1	0	0	512	
13	1	1	0	0	511	
14	1	1	0	0	512	
15	1	1	0	0	511	
0	1	1	0	0	511	
1	1	1	0	0	512	
2	1	1	0	0	512	
3	1	1	0	0	512	
4	1	1	0	0	511	
5	1	1	0	0	512	
6	1	1	0	0	512	
7	1	1	0	0	512	
8	1	1	0	0	512	
9	1	1	0	0	512	
10	1	1	0	0	512	
11	1	1	0	0	512	
12	1	1	0	0	512	
13	1	1	0	0	512	
14	1	1	0	0	512	
15	1	1	0	0	512	
0	1	1	0	0	512	
1	1	1	0	0	512	
2	1	1	0	0	512	
3	1	1	0	0	513	
4	1	1	0	0	512	
5	1	1	0	0	512	
6	1	1	0	0	512	
7	1	1	0	0	513	
8	1	1	0	0	512	
9	1	1	0	0	512	
10	1	1	0	0	512	
11	1	1	0	0	512	
12	1	1	0	0	512	
13	1	1	0	0	512	
14	1	1	0	0	511	
15	1	1	0	0	511	
0	1	1	0	0	512	
1	1	1	0	0	512	
2	1	1	0	0	511	
3	1	1	0	0	511	
4	1	1	0	0	511	
5	1	1	0	0	511	
6	1	1	0	0	511	
7	1	1	0	0	510	
8	1	1	0	0	510	
9	1	1	0	0	510	
10	1	1	0	0	510	
11	1	1	0	0	510	
12	1	1	0	0	509	
13	1	1	0	0	509	
14	1	1	0	0	509	
15	1	1	0	0	510	
0	1	1	0	0	509	
1	1	1	0	0	509	
2	1	1	0	0	509	
3	1	1	0	0	509	
4	1	1	0	0	509	
5	1	1	0	0	508	
6	1	1	0	0	509	
7	1	1	0	0	508	
8	1	1	0	0	508	
9	1	1	0	0	508	
10	1	1	0	0	507	
11	1	1	0	0	508	
12	1	1	0	0	508	
13	1	1	0	0	507	
14	1	1	0	0	507	
15	1	1	0	0	507	
0	1	1	0	0	506	
1	1	1	0	0	506	
2	1	1	0	0	505	
3	1	1	0	0	505	
4	1	1	0	0	505	
5	1	1	0	0	505	
6	1	1	0	0	505	
7	1	1	0	0	505	
8	1	1	0	0	504	
9	1	1	0	0	504	
10	1	1	0	0	504	
11	1	1	0	0	504	
12	1	1	0	0	504	
13	1	1	0	0	504	
14	1	1	0	0	504	
15	1	1	0	0	504	
0	1	1	0	0	503	
1	1	1	0	0	503	
2	1	1	0	0	503	
3	1	1	0	0	503	
4	1	1	0	0	503	
5	1	1	0	0	503	
6	1	1	0	0	503	
7	1	1	0	0	502	
8	1	1	0	0	502	
9	1	1	0	0	501	
10	1	1	0	0	502	
11	1	1	0	0	502	
12	1	1	0	0	501	
13	1	1	0	0	500	
14	1	1	0	0	501	
15	1	1	0	0	500	
0	1	1	0	0	500	
1	1	1	0	0	500	
2	1	1	0	0	499	
3	1	1	0	0	500	
4	1	1	0	0	499	
5	1	1	0	0	499	
6	1	1	0	0	499	
7	1	1	0	0	499	
8	1	1	0	0	499	
9	1	1	0	0	498	
10	1	1	0	0	499	
11	1	1	0	0	498	
12	1	1	0	0	498	
13	1	1	0	0	499	
14	1	1	0	0	498	
15	1	1	0	0	498	
0	1	1	0	0	498	
1	1	1	0	0	497	
2	1	1	0	0	498	
3	1	1	0	0	497	
4	1	1	0	0	497	
5	1	1	0	0	497	
6	1	1	0	0	497	
7	1	1	0	0	496	
8	1	1	0	0	496	
9	1	1	0	0	496	
10	1	1	0	0	496	
11	1	1	0	0	496	
12	1	1	0	0	496	
13	1	1	0	0	496	
14	1	1	0	0	496	
15	1	1	0	0	496	
0	1	1	0	0	496	
1	1	1	0	0	496	
2	1	1	0	0	496	
3	1	1	0	0	496	
4	1	1	0	0	496	
5	1	1	0	0	496	
6	1	1	0	0	496	
7	1	1	0	0	496	
8	1	1	0	0	495	
9	1	1	0	0	495	
10	1	1	0	0	496	
11	1	1	0	0	496	
12	1	1	0	0	496	
13	1	1	0	0	496	
14	1	1	0	0	496	
15	1	1	0	0	496	
0	1	1	0	0	495	
1	1	1	0	0	496	
2	1	1	0	0	496	
3	1	1	0	0	496	
4	1	1	0	0	496	
5	1	1	0	0	496	
6	1	1	0	0	496	
7	1	1	0	0	496	
8	1	1	0	0	496	
9	1	1	0	0	496	
10	1	1	0	0	496	
11	1	1	0	0	496	
12	1	1	0	0	496	
13	1	1	0	0	497	
14	1	1	0	0	497	
15	1	1	0	0	497	
0	1	1	0	0	496	
1	1	1	0	0	497	
2	1	1	0	0	497	
3	1	1	0	0	497	
4	1	1	0	0	497	
5	1	1	0	0	497	
6	1	1	0	0	497	
7	1	1	0	0	497	
8	1	1	0	0	497	
9	1	1	0	0	497	
10	1	1	0	0	497	
11	1	1	0	0	497	
12	1	1	0	0	498	
13	1	1	0	0	498	
14	1	1	0	0	498	
15	1	1	0	0	498	
0	1	1	0	0	498	
1	1	1	0	0	499	
2	1	1	0	0	499	
3	1	1	0	0	499	
4	1	1	0	0	499	
5	1	1	0	0	499	
6	1	1	0	0	499	
7	1	1	0	0	500	
8	1	1	0	0	500	
9	1	1	0	0	501	
10	1	1	0	0	501	
11	1	1	0	0	502	
12	1	1	0	0	502	
13	1	1	0	0	502	
14	1	1	0	0	503	
15	1	1	0	0	503	
0	1	1	0	0	504	
1	1	1	0	0	504	
2	1	1	0	0	504	
3	1	1	0	0	505	
4	1	1	0	0	505	
5	1	1	0	0	506	
6	1	1	0	0	507	
7	1	1	0	0	508	
8	1	1	0	0	508	
9	1	1	0	0	509	
10	1	1	0	0	509	
11	1	1	0	0	510	
12	1	1	0	0	511	
13	1	1	0	0	511	
14	1	1	0	0	512	
15	1	1	0	0	513	
0	1	1	0	0	514	
1	1	1	0	0	515	
2	1	1	0	0	515	
3	1	1	0	0	515	
4	1	1	0	0	516	
5	1	1	0	0	516	
6	1	1	0	0	518	
7	1	1	0	0	519	
8	1	1	0	0	519	
9	1	1	0	0	521	
10	1	1	0	0	522	
11	1	1	0	0	523	
12	1	1	0	0	523	
13	1	1	0	0	524	
14	1	1	0	0	525	
15	1	1	0	0	526	
0	1	1	0	0	527	
1	1	1	0	0	528	
2	1	1	0	0	528	
3	1	1	0	0	530	
4	1	1	0	0	531	
5	1	1	0	0	531	
6	1	1	0	0	532	
7	1	1	0	0	534	
8	1	1	0	0	535	
9	1	1	0	0	536	
10	1	1	0	0	537	
11	1	1	0	0	538	
12	1	1	0	0	539	
13	1	1	0	0	540	
14	1	1	0	0	541	
15	1	1	0	0	542	
0	1	1	0	0	543	
1	1	1	0	0	544	
2	1	1	0	0	545	
3	1	1	0	0	546	
4	1	1	0	0	547	
5	1	1	0	0	548	
6	1	1	0	0	550	
7	1	1	0	0	551	
8	1	1	0	0	551	
9	1	1	0	0	553	
10	1	1	0	0	553	
11	1	1	0	0	555	
12	1	1	0	0	555	
13	1	1	0	0	556	
14	1	1	0	0	557	
15	1	1	0	0	558	
0	1	1	0	0	558	
1	1	1	0	0	559	
2	1	1	0	0	560	
3	1	1	0	0	561	
4	1	1	0	0	561	
5	1	1	0	0	562	
6	1	1	0	0	563	
7	1	1	0	0	563	
8	1	1	0	0	564	
9	1	1	0	0	565	
10	1	1	0	0	566	
11	1	1	0	0	566	
12	1	1	0	0	567	
13	1	1	0	0	567	
14	1	1	0	0	568	
15	1	1	0	0	569	
0	1	1	0	0	569	
1	1	1	0	0	569	
2	1	1	0	0	569	
3	1	1	0	0	570	
4	1	1	0	0	571	
5	1	1	0	0	571	
6	1	1	0	0	572	
7	1	1	0	0	571	
8	1	1	0	0	571	
9	1	1	0	0	572	
10	1	1	0	0	572	
11	1	1	0	0	573	
12	1	1	0	0	572	
13	1	1	0	0	572	
14	1	1	0	0	572	
15	1	1	0	0	573	
0	1	1	0	0	573	
1	1	1	0	0	573	
2	1	1	0	0	573	
3	1	1	0	0	572	
4	1	1	0	0	573	
5	1	1	0	0	572	
6	1	1	0	0	572	
7	1	1	0	0	572	
8	1	1	0	0	572	
9	1	1	0	0	572	
10	1	1	0	0	571	
11	1	1	0	0	571	
12	1	1	0	0	571	
13	1	1	0	0	571	
14	1	1	0	0	571	
15	1	1	0	0	570	
0	1	1	0	0	569	
1	1	1	0	0	569	
2	1	1	0	0	569	
3	1	1	0	0	568	
4	1	1	0	0	568	
5	1	1	0	0	568	
6	1	1	0	0	567	
7	1	1	0	0	567	
8	1	1	0	0	567	
9	1	1	0	0	566	
10	1	1	0	0	565	
11	1	1	0	0	564	
12	1	1	0	0	564	
13	1	1	0	0	563	
14	1	1	0	0	563	
15	1	1	0	0	562	
0	1	1	0	0	562	
1	1	1	0	0	560	
2	1	1	0	0	560	
3	1	1	0	0	559	
4	1	1	0	0	558	
5	1	1	0	0	558	
6	1	1	0	0	556	
7	1	1	0	0	556	
8	1	1	0	0	555	
9	1	1	0	0	555	
10	1	1	0	0	553	
11	1	1	0	0	552	
12	1	1	0	0	551	
13	1	1	0	0	550	
14	1	1	0	0	550	
15	1	1	0	0	549	
0	1	1	0	0	547	
1	1	1	0	0	547	
2	1	1	0	0	546	
3	1	1	0	0	545	
4	1	1	0	0	544	
5	1	1	0	0	543	
6	1	1	0	0	542	
7	1	1	0	0	541	
8	1	1	0	0	539	
9	1	1	0	0	539	
10	1	1	0	0	538	
11	1	1	0	0	537	
12	1	1	0	0	536	
13	1	1	0	0	535	
14	1	1	0	0	534	
15	1	1	0	0	532	
0	1	1	0	0	532	
1	1	1	0	0	531	
2	1	1	0	0	530	
3	1	1	0	0	529	
4	1	1	0	0	528	
5	1	1	0	0	527	
6	1	1	0	0	526	
7	1	1	0	0	525	
8	1	1	0	0	524	
9	1	1	0	0	523	
10	1	1	0	0	523	
11	1	1	0	0	521	
12	1	1	0	0	521	
13	1	1	0	0	519	
14	1	1	0	0	519	
15	1	1	0	0	518	
0	1	1	0	0	517	
1	1	1	0	0	515	
2	1	1	0	0	514	
3	1	1	0	0	513	
4	1	1	0	0	512	
5	1	1	0	0	511	
6	1	1	0	0	510	
7	1	1	0	0	510	
8	1	1	0	0	508	
9	1	1	0	0	508	
10	1	1	0	0	507	
11	1	1	0	0	505	
12	1	1	0	0	505	
13	1	1	0	0	503	
14	1	1	0	0	502	
15	1	1	0	0	502	
0	1	1	0	0	501	
1	1	1	0	0	499	
2	1	1	0	0	499	
3	1	1	0	0	497	
4	1	1	0	0	496	
5	1	1	0	0	495	
6	1	1	0	0	495	
7	1	1	0	0	493	
8	1	1	0	0	492	
9	1	1	0	0	492	
10	1	1	0	0	491	
11	1	1	0	0	490	
12	1	1	0	0	489	
13	1	1	0	0	488	
14	1	1	0	0	488	
15	1	1	0	0	487	
0	1	1	0	0	486	
1	1	1	0	0	485	
2	1	1	0	0	485	
3	1	1	0	0	484	
4	1	1	0	0	483	
5	1	1	0	0	483	
6	1	1	0	0	482	
7	1	1	0	0	481	
8	1	1	0	0	481	
9	1	1	0	0	480	
10	1	1	0	0	479	
11	1	1	0	0	478	
12	1	1	0	0	478	
13	1	1	0	0	478	
14	1	1	0	0	477	
15	1	1	0	0	476	
0	1	1	0	0	475	
1	1	1	0	0	475	
2	1	1	0	0	475	
3	1	1	0	0	473	
4	1	1	0	0	473	
5	1	1	0	0	472	
6	1	1	0	0	472	
7	1	1	0	0	472	
8	1	1	0	0	471	
9	1	1	0	0	471	
10	1	1	0	0	470	
11	1	1	0	0	470	
12	1	1	0	0	470	
13	1	1	0	0	470	
14	1	1	0	0	469	
15	1	1	0	0	469	
0	1	1	0	0	469	
1	1	1	0	0	469	
2	1	1	0	0	468	
3	1	1	0	0	469	
4	1	1	0	0	468	
5	1	1	0	0	468	
6	1	1	0	0	467	
7	1	1	0	0	468	
8	1	1	0	0	467	
9	1	1	0	0	468	
10	1	1	0	0	467	
11	1	1	0	0	467	
12	1	1	0	0	468	
13	1	1	0	0	468	
14	1	1	0	0	468	
15	1	1	0	0	468	
0	1	1	0	0	468	
1	1	1	0	0	468	
2	1	1	0	0	468	
3	1	1	0	0	469	
4	1	1	0	0	468	
5	1	1	0	0	469	
6	1	1	0	0	470	
7	1	1	0	0	470	
8	1	1	0	0	469	
9	1	1	0	0	470	
10	1	1	0	0	470	
11	1	1	0	0	471	
